[Measurement conditions]
Anode material,Cu
K-Alpha1 wavelength,1.5405980
K-Alpha2 wavelength,1.5444260
Ratio K-Alpha2/K-Alpha1,0.500
Divergence slit,Fixed,0.38mm
Monochromator used,NO
Generator voltage, 40
Tube current, 15
File date and time,17/Sep/2026 11:33
Unit cell,
h k l, 0 0 0
Scan axis,Gonio
Scan range,1.997000000,29.999918960
Scan step size,0.0108665
No. of points, 2577
Scan type,CONTINUOUS
Time per step,18.870
[Scan points]
Angle, TimePerStep, Intensity, ESD
2.002433240, 18.870, 59019.0, 242.9383
2.013299720, 18.870, 57267.0, 239.3052
2.024166200, 18.870, 54505.0, 233.4631
2.035032680, 18.870, 52716.0, 229.5997
2.045899160, 18.870, 49871.0, 223.3182
2.056765640, 18.870, 47592.0, 218.1559
2.067632120, 18.870, 45584.0, 213.5041
2.078498600, 18.870, 43067.0, 207.5259
2.089365080, 18.870, 40576.0, 201.4349
2.100231560, 18.870, 38115.0, 195.2306
2.111098040, 18.870, 36200.0, 190.2630
2.121964520, 18.870, 34111.0, 184.6916
2.132831000, 18.870, 31306.0, 176.9350
2.143697480, 18.870, 28758.0, 169.5818
2.154563960, 18.870, 26576.0, 163.0215
2.165430440, 18.870, 24120.0, 155.3061
2.176296920, 18.870, 21663.0, 147.1836
2.187163400, 18.870, 19456.0, 139.4848
2.198029880, 18.870, 17013.0, 130.4339
2.208896360, 18.870, 14614.0, 120.8884
2.219762840, 18.870, 12138.0, 110.1726
2.230629320, 18.870, 9676.0, 98.3667
2.241495800, 18.870, 7295.0, 85.4108
2.252362280, 18.870, 5473.0, 73.9797
2.263228760, 18.870, 4260.0, 65.2687
2.274095240, 18.870, 3536.0, 59.4643
2.284961720, 18.870, 3156.0, 56.1783
2.295828200, 18.870, 3007.0, 54.8361
2.306694680, 18.870, 2838.0, 53.2729
2.317561160, 18.870, 2756.0, 52.4976
2.328427640, 18.870, 2830.0, 53.1977
2.339294120, 18.870, 2882.0, 53.6843
2.350160600, 18.870, 2731.0, 52.2590
2.361027080, 18.870, 2629.0, 51.2738
2.371893560, 18.870, 2698.0, 51.9423
2.382760040, 18.870, 2789.0, 52.8110
2.393626520, 18.870, 2708.0, 52.0384
2.404493000, 18.870, 2663.0, 51.6043
2.415359480, 18.870, 2591.0, 50.9019
2.426225960, 18.870, 2772.0, 52.6498
2.437092440, 18.870, 2693.0, 51.8941
2.447958920, 18.870, 2603.0, 51.0196
2.458825400, 18.870, 2661.0, 51.5849
2.469691880, 18.870, 2556.0, 50.5569
2.480558360, 18.870, 2600.0, 50.9902
2.491424840, 18.870, 2687.0, 51.8363
2.502291320, 18.870, 2591.0, 50.9019
2.513157800, 18.870, 2582.0, 50.8134
2.524024280, 18.870, 2564.0, 50.6360
2.534890760, 18.870, 2621.0, 51.1957
2.545757240, 18.870, 2568.0, 50.6754
2.556623720, 18.870, 2373.0, 48.7134
2.567490200, 18.870, 2533.0, 50.3289
2.578356680, 18.870, 2487.0, 49.8698
2.589223160, 18.870, 2518.0, 50.1797
2.600089640, 18.870, 2503.0, 50.0300
2.610956120, 18.870, 2463.0, 49.6286
2.621822600, 18.870, 2501.0, 50.0100
2.632689080, 18.870, 2477.0, 49.7695
2.643555560, 18.870, 2368.0, 48.6621
2.654422040, 18.870, 2387.0, 48.8569
2.665288520, 18.870, 2436.0, 49.3559
2.676155000, 18.870, 2407.0, 49.0612
2.687021480, 18.870, 2337.0, 48.3425
2.697887960, 18.870, 2412.0, 49.1121
2.708754440, 18.870, 2300.0, 47.9583
2.719620920, 18.870, 2387.0, 48.8569
2.730487400, 18.870, 2351.0, 48.4871
2.741353880, 18.870, 2346.0, 48.4355
2.752220360, 18.870, 2310.0, 48.0625
2.763086840, 18.870, 2303.0, 47.9896
2.773953320, 18.870, 2226.0, 47.1805
2.784819800, 18.870, 2273.0, 47.6760
2.795686280, 18.870, 2309.0, 48.0521
2.806552760, 18.870, 2228.0, 47.2017
2.817419240, 18.870, 2283.0, 47.7807
2.828285720, 18.870, 2256.0, 47.4974
2.839152200, 18.870, 2194.0, 46.8402
2.850018680, 18.870, 2207.0, 46.9787
2.860885160, 18.870, 2222.0, 47.1381
2.871751640, 18.870, 2199.0, 46.8935
2.882618120, 18.870, 2149.0, 46.3573
2.893484600, 18.870, 2202.0, 46.9255
2.904351080, 18.870, 2131.0, 46.1628
2.915217560, 18.870, 2078.0, 45.5851
2.926084040, 18.870, 2178.0, 46.6690
2.936950520, 18.870, 2115.0, 45.9891
2.947817000, 18.870, 2060.0, 45.3872
2.958683480, 18.870, 2094.0, 45.7602
2.969549960, 18.870, 2063.0, 45.4203
2.980416440, 18.870, 2063.0, 45.4203
2.991282920, 18.870, 2047.0, 45.2438
3.002149400, 18.870, 2079.0, 45.5961
3.013015880, 18.870, 2081.0, 45.6180
3.023882360, 18.870, 2042.0, 45.1885
3.034748840, 18.870, 2082.0, 45.6289
3.045615320, 18.870, 1996.0, 44.6766
3.056481800, 18.870, 2009.0, 44.8219
3.067348280, 18.870, 2024.0, 44.9889
3.078214760, 18.870, 2013.0, 44.8665
3.089081240, 18.870, 1982.0, 44.5197
3.099947720, 18.870, 2017.0, 44.9110
3.110814200, 18.870, 2015.0, 44.8888
3.121680680, 18.870, 1974.0, 44.4297
3.132547160, 18.870, 1939.0, 44.0341
3.143413640, 18.870, 1945.0, 44.1022
3.154280120, 18.870, 1853.0, 43.0465
3.165146600, 18.870, 1857.0, 43.0929
3.176013080, 18.870, 1837.0, 42.8602
3.186879560, 18.870, 1918.0, 43.7950
3.197746040, 18.870, 1840.0, 42.8952
3.208612520, 18.870, 1794.0, 42.3556
3.219479000, 18.870, 1850.0, 43.0116
3.230345480, 18.870, 1755.0, 41.8927
3.241211960, 18.870, 1813.0, 42.5793
3.252078440, 18.870, 1821.0, 42.6732
3.262944920, 18.870, 1782.0, 42.2137
3.273811400, 18.870, 1766.0, 42.0238
3.284677880, 18.870, 1735.0, 41.6533
3.295544360, 18.870, 1688.0, 41.0853
3.306410840, 18.870, 1734.0, 41.6413
3.317277320, 18.870, 1751.0, 41.8450
3.328143800, 18.870, 1750.0, 41.8330
3.339010280, 18.870, 1655.0, 40.6817
3.349876760, 18.870, 1643.0, 40.5339
3.360743240, 18.870, 1713.0, 41.3884
3.371609720, 18.870, 1661.0, 40.7554
3.382476200, 18.870, 1692.0, 41.1339
3.393342680, 18.870, 1658.0, 40.7185
3.404209160, 18.870, 1644.0, 40.5463
3.415075640, 18.870, 1627.0, 40.3361
3.425942120, 18.870, 1662.0, 40.7676
3.436808600, 18.870, 1648.0, 40.5956
3.447675080, 18.870, 1631.0, 40.3856
3.458541560, 18.870, 1648.0, 40.5956
3.469408040, 18.870, 1603.0, 40.0375
3.480274520, 18.870, 1575.0, 39.6863
3.491141000, 18.870, 1563.0, 39.5348
3.502007480, 18.870, 1556.0, 39.4462
3.512873960, 18.870, 1522.0, 39.0128
3.523740440, 18.870, 1495.0, 38.6652
3.534606920, 18.870, 1495.0, 38.6652
3.545473400, 18.870, 1499.0, 38.7169
3.556339880, 18.870, 1530.0, 39.1152
3.567206360, 18.870, 1499.0, 38.7169
3.578072840, 18.870, 1429.0, 37.8021
3.588939320, 18.870, 1505.0, 38.7943
3.599805800, 18.870, 1433.0, 37.8550
3.610672280, 18.870, 1393.0, 37.3229
3.621538760, 18.870, 1464.0, 38.2623
3.632405240, 18.870, 1384.0, 37.2022
3.643271720, 18.870, 1425.0, 37.7492
3.654138200, 18.870, 1411.0, 37.5633
3.665004680, 18.870, 1445.0, 38.0132
3.675871160, 18.870, 1377.0, 37.1080
3.686737640, 18.870, 1405.0, 37.4833
3.697604120, 18.870, 1384.0, 37.2022
3.708470600, 18.870, 1359.0, 36.8646
3.719337080, 18.870, 1349.0, 36.7287
3.730203560, 18.870, 1342.0, 36.6333
3.741070040, 18.870, 1335.0, 36.5377
3.751936520, 18.870, 1403.0, 37.4566
3.762803000, 18.870, 1348.0, 36.7151
3.773669480, 18.870, 1296.0, 36.0000
3.784535960, 18.870, 1266.0, 35.5809
3.795402440, 18.870, 1306.0, 36.1386
3.806268920, 18.870, 1289.0, 35.9026
3.817135400, 18.870, 1317.0, 36.2905
3.828001880, 18.870, 1267.0, 35.5949
3.838868360, 18.870, 1226.0, 35.0143
3.849734840, 18.870, 1288.0, 35.8887
3.860601320, 18.870, 1223.0, 34.9714
3.871467800, 18.870, 1194.0, 34.5543
3.882334280, 18.870, 1183.0, 34.3948
3.893200760, 18.870, 1217.0, 34.8855
3.904067240, 18.870, 1212.0, 34.8138
3.914933720, 18.870, 1173.0, 34.2491
3.925800200, 18.870, 1170.0, 34.2053
3.936666680, 18.870, 1164.0, 34.1174
3.947533160, 18.870, 1174.0, 34.2637
3.958399640, 18.870, 1121.0, 33.4813
3.969266120, 18.870, 1134.0, 33.6749
3.980132600, 18.870, 1172.0, 34.2345
3.990999080, 18.870, 1146.0, 33.8526
4.001865560, 18.870, 1080.0, 32.8634
4.012732040, 18.870, 1068.0, 32.6803
4.023598520, 18.870, 1039.0, 32.2335
4.034465000, 18.870, 1106.0, 33.2566
4.045331480, 18.870, 1180.0, 34.3511
4.056197960, 18.870, 1133.0, 33.6601
4.067064440, 18.870, 1040.0, 32.2490
4.077930920, 18.870, 1017.0, 31.8904
4.088797400, 18.870, 1071.0, 32.7261
4.099663880, 18.870, 1051.0, 32.4191
4.110530360, 18.870, 1062.0, 32.5883
4.121396840, 18.870, 1036.0, 32.1870
4.132263320, 18.870, 1073.0, 32.7567
4.143129800, 18.870, 1009.0, 31.7648
4.153996280, 18.870, 996.0, 31.5595
4.164862760, 18.870, 1051.0, 32.4191
4.175729240, 18.870, 998.0, 31.5911
4.186595720, 18.870, 1006.0, 31.7175
4.197462200, 18.870, 1029.0, 32.0780
4.208328680, 18.870, 1021.0, 31.9531
4.219195160, 18.870, 938.0, 30.6268
4.230061640, 18.870, 999.0, 31.6070
4.240928120, 18.870, 986.0, 31.4006
4.251794600, 18.870, 999.0, 31.6070
4.262661080, 18.870, 965.0, 31.0644
4.273527560, 18.870, 947.0, 30.7734
4.284394040, 18.870, 974.0, 31.2090
4.295260520, 18.870, 964.0, 31.0483
4.306127000, 18.870, 909.0, 30.1496
4.316993480, 18.870, 900.0, 30.0000
4.327859960, 18.870, 951.0, 30.8383
4.338726440, 18.870, 871.0, 29.5127
4.349592920, 18.870, 874.0, 29.5635
4.360459400, 18.870, 860.0, 29.3258
4.371325880, 18.870, 968.0, 31.1127
4.382192360, 18.870, 899.0, 29.9833
4.393058840, 18.870, 960.0, 30.9839
4.403925320, 18.870, 924.0, 30.3974
4.414791800, 18.870, 896.0, 29.9333
4.425658280, 18.870, 920.0, 30.3315
4.436524760, 18.870, 899.0, 29.9833
4.447391240, 18.870, 817.0, 28.5832
4.458257720, 18.870, 863.0, 29.3769
4.469124200, 18.870, 931.0, 30.5123
4.479990680, 18.870, 890.0, 29.8329
4.490857160, 18.870, 891.0, 29.8496
4.501723640, 18.870, 853.0, 29.2062
4.512590120, 18.870, 875.0, 29.5804
4.523456600, 18.870, 831.0, 28.8271
4.534323080, 18.870, 817.0, 28.5832
4.545189560, 18.870, 873.0, 29.5466
4.556056040, 18.870, 862.0, 29.3598
4.566922520, 18.870, 881.0, 29.6816
4.577789000, 18.870, 839.0, 28.9655
4.588655480, 18.870, 825.0, 28.7228
4.599521960, 18.870, 830.0, 28.8097
4.610388440, 18.870, 849.0, 29.1376
4.621254920, 18.870, 849.0, 29.1376
4.632121400, 18.870, 886.0, 29.7658
4.642987880, 18.870, 767.0, 27.6948
4.653854360, 18.870, 839.0, 28.9655
4.664720840, 18.870, 815.0, 28.5482
4.675587320, 18.870, 857.0, 29.2746
4.686453800, 18.870, 812.0, 28.4956
4.697320280, 18.870, 791.0, 28.1247
4.708186760, 18.870, 813.0, 28.5132
4.719053240, 18.870, 831.0, 28.8271
4.729919720, 18.870, 829.0, 28.7924
4.740786200, 18.870, 844.0, 29.0517
4.751652680, 18.870, 841.0, 29.0000
4.762519160, 18.870, 834.0, 28.8791
4.773385640, 18.870, 812.0, 28.4956
4.784252120, 18.870, 799.0, 28.2666
4.795118600, 18.870, 835.0, 28.8964
4.805985080, 18.870, 802.0, 28.3196
4.816851560, 18.870, 808.0, 28.4253
4.827718040, 18.870, 823.0, 28.6880
4.838584520, 18.870, 837.0, 28.9310
4.849451000, 18.870, 797.0, 28.2312
4.860317480, 18.870, 872.0, 29.5296
4.871183960, 18.870, 874.0, 29.5635
4.882050440, 18.870, 843.0, 29.0345
4.892916920, 18.870, 852.0, 29.1890
4.903783400, 18.870, 870.0, 29.4958
4.914649880, 18.870, 886.0, 29.7658
4.925516360, 18.870, 843.0, 29.0345
4.936382840, 18.870, 854.0, 29.2233
4.947249320, 18.870, 891.0, 29.8496
4.958115800, 18.870, 952.0, 30.8545
4.968982280, 18.870, 887.0, 29.7825
4.979848760, 18.870, 902.0, 30.0333
4.990715240, 18.870, 957.0, 30.9354
5.001581720, 18.870, 940.0, 30.6594
5.012448200, 18.870, 945.0, 30.7409
5.023314680, 18.870, 1017.0, 31.8904
5.034181160, 18.870, 969.0, 31.1288
5.045047640, 18.870, 929.0, 30.4795
5.055914120, 18.870, 1074.0, 32.7719
5.066780600, 18.870, 1056.0, 32.4962
5.077647080, 18.870, 1093.0, 33.0606
5.088513560, 18.870, 1080.0, 32.8634
5.099380040, 18.870, 1142.0, 33.7935
5.110246520, 18.870, 1138.0, 33.7343
5.121113000, 18.870, 1191.0, 34.5109
5.131979480, 18.870, 1163.0, 34.1028
5.142845960, 18.870, 1214.0, 34.8425
5.153712440, 18.870, 1240.0, 35.2136
5.164578920, 18.870, 1227.0, 35.0286
5.175445400, 18.870, 1237.0, 35.1710
5.186311880, 18.870, 1250.0, 35.3553
5.197178360, 18.870, 1254.0, 35.4119
5.208044840, 18.870, 1306.0, 36.1386
5.218911320, 18.870, 1330.0, 36.4692
5.229777800, 18.870, 1365.0, 36.9459
5.240644280, 18.870, 1275.0, 35.7071
5.251510760, 18.870, 1344.0, 36.6606
5.262377240, 18.870, 1266.0, 35.5809
5.273243720, 18.870, 1221.0, 34.9428
5.284110200, 18.870, 1217.0, 34.8855
5.294976680, 18.870, 1098.0, 33.1361
5.305843160, 18.870, 977.0, 31.2570
5.316709640, 18.870, 833.0, 28.8617
5.327576120, 18.870, 783.0, 27.9821
5.338442600, 18.870, 688.0, 26.2298
5.349309080, 18.870, 700.0, 26.4575
5.360175560, 18.870, 665.0, 25.7876
5.371042040, 18.870, 653.0, 25.5539
5.381908520, 18.870, 643.0, 25.3574
5.392775000, 18.870, 617.0, 24.8395
5.403641480, 18.870, 654.0, 25.5734
5.414507960, 18.870, 604.0, 24.5764
5.425374440, 18.870, 637.0, 25.2389
5.436240920, 18.870, 631.0, 25.1197
5.447107400, 18.870, 604.0, 24.5764
5.457973880, 18.870, 639.0, 25.2784
5.468840360, 18.870, 631.0, 25.1197
5.479706840, 18.870, 645.0, 25.3969
5.490573320, 18.870, 637.0, 25.2389
5.501439800, 18.870, 609.0, 24.6779
5.512306280, 18.870, 585.0, 24.1868
5.523172760, 18.870, 588.0, 24.2487
5.534039240, 18.870, 576.0, 24.0000
5.544905720, 18.870, 565.0, 23.7697
5.555772200, 18.870, 537.0, 23.1733
5.566638680, 18.870, 557.0, 23.6008
5.577505160, 18.870, 546.0, 23.3666
5.588371640, 18.870, 569.0, 23.8537
5.599238120, 18.870, 551.0, 23.4734
5.610104600, 18.870, 616.0, 24.8193
5.620971080, 18.870, 526.0, 22.9347
5.631837560, 18.870, 565.0, 23.7697
5.642704040, 18.870, 587.0, 24.2281
5.653570520, 18.870, 537.0, 23.1733
5.664437000, 18.870, 576.0, 24.0000
5.675303480, 18.870, 530.0, 23.0217
5.686169960, 18.870, 553.0, 23.5160
5.697036440, 18.870, 538.0, 23.1948
5.707902920, 18.870, 509.0, 22.5610
5.718769400, 18.870, 508.0, 22.5389
5.729635880, 18.870, 500.0, 22.3607
5.740502360, 18.870, 516.0, 22.7156
5.751368840, 18.870, 494.0, 22.2261
5.762235320, 18.870, 549.0, 23.4307
5.773101800, 18.870, 547.0, 23.3880
5.783968280, 18.870, 519.0, 22.7816
5.794834760, 18.870, 537.0, 23.1733
5.805701240, 18.870, 501.0, 22.3830
5.816567720, 18.870, 524.0, 22.8910
5.827434200, 18.870, 479.0, 21.8861
5.838300680, 18.870, 503.0, 22.4277
5.849167160, 18.870, 517.0, 22.7376
5.860033640, 18.870, 511.0, 22.6053
5.870900120, 18.870, 489.0, 22.1133
5.881766600, 18.870, 508.0, 22.5389
5.892633080, 18.870, 439.0, 20.9523
5.903499560, 18.870, 473.0, 21.7486
5.914366040, 18.870, 492.0, 22.1811
5.925232520, 18.870, 495.0, 22.2486
5.936099000, 18.870, 503.0, 22.4277
5.946965480, 18.870, 482.0, 21.9545
5.957831960, 18.870, 463.0, 21.5174
5.968698440, 18.870, 441.0, 21.0000
5.979564920, 18.870, 484.0, 22.0000
5.990431400, 18.870, 473.0, 21.7486
6.001297880, 18.870, 507.0, 22.5167
6.012164360, 18.870, 482.0, 21.9545
6.023030840, 18.870, 418.0, 20.4450
6.033897320, 18.870, 478.0, 21.8632
6.044763800, 18.870, 411.0, 20.2731
6.055630280, 18.870, 418.0, 20.4450
6.066496760, 18.870, 475.0, 21.7945
6.077363240, 18.870, 454.0, 21.3073
6.088229720, 18.870, 438.0, 20.9284
6.099096200, 18.870, 435.0, 20.8567
6.109962680, 18.870, 434.0, 20.8327
6.120829160, 18.870, 425.0, 20.6155
6.131695640, 18.870, 430.0, 20.7364
6.142562120, 18.870, 411.0, 20.2731
6.153428600, 18.870, 439.0, 20.9523
6.164295080, 18.870, 410.0, 20.2485
6.175161560, 18.870, 418.0, 20.4450
6.186028040, 18.870, 434.0, 20.8327
6.196894520, 18.870, 436.0, 20.8806
6.207761000, 18.870, 412.0, 20.2978
6.218627480, 18.870, 422.0, 20.5426
6.229493960, 18.870, 400.0, 20.0000
6.240360440, 18.870, 435.0, 20.8567
6.251226920, 18.870, 437.0, 20.9045
6.262093400, 18.870, 418.0, 20.4450
6.272959880, 18.870, 447.0, 21.1424
6.283826360, 18.870, 449.0, 21.1896
6.294692840, 18.870, 436.0, 20.8806
6.305559320, 18.870, 441.0, 21.0000
6.316425800, 18.870, 411.0, 20.2731
6.327292280, 18.870, 434.0, 20.8327
6.338158760, 18.870, 435.0, 20.8567
6.349025240, 18.870, 364.0, 19.0788
6.359891720, 18.870, 443.0, 21.0476
6.370758200, 18.870, 412.0, 20.2978
6.381624680, 18.870, 404.0, 20.0998
6.392491160, 18.870, 412.0, 20.2978
6.403357640, 18.870, 403.0, 20.0749
6.414224120, 18.870, 431.0, 20.7605
6.425090600, 18.870, 371.0, 19.2614
6.435957080, 18.870, 437.0, 20.9045
6.446823560, 18.870, 396.0, 19.8997
6.457690040, 18.870, 390.0, 19.7484
6.468556520, 18.870, 408.0, 20.1990
6.479423000, 18.870, 407.0, 20.1742
6.490289480, 18.870, 413.0, 20.3224
6.501155960, 18.870, 394.0, 19.8494
6.512022440, 18.870, 421.0, 20.5183
6.522888920, 18.870, 410.0, 20.2485
6.533755400, 18.870, 395.0, 19.8746
6.544621880, 18.870, 394.0, 19.8494
6.555488360, 18.870, 409.0, 20.2237
6.566354840, 18.870, 432.0, 20.7846
6.577221320, 18.870, 417.0, 20.4206
6.588087800, 18.870, 440.0, 20.9762
6.598954280, 18.870, 430.0, 20.7364
6.609820760, 18.870, 436.0, 20.8806
6.620687240, 18.870, 426.0, 20.6398
6.631553720, 18.870, 403.0, 20.0749
6.642420200, 18.870, 377.0, 19.4165
6.653286680, 18.870, 408.0, 20.1990
6.664153160, 18.870, 394.0, 19.8494
6.675019640, 18.870, 390.0, 19.7484
6.685886120, 18.870, 423.0, 20.5670
6.696752600, 18.870, 391.0, 19.7737
6.707619080, 18.870, 440.0, 20.9762
6.718485560, 18.870, 398.0, 19.9499
6.729352040, 18.870, 381.0, 19.5192
6.740218520, 18.870, 383.0, 19.5704
6.751085000, 18.870, 431.0, 20.7605
6.761951480, 18.870, 409.0, 20.2237
6.772817960, 18.870, 382.0, 19.5448
6.783684440, 18.870, 383.0, 19.5704
6.794550920, 18.870, 375.0, 19.3649
6.805417400, 18.870, 395.0, 19.8746
6.816283880, 18.870, 421.0, 20.5183
6.827150360, 18.870, 393.0, 19.8242
6.838016840, 18.870, 423.0, 20.5670
6.848883320, 18.870, 376.0, 19.3907
6.859749800, 18.870, 399.0, 19.9750
6.870616280, 18.870, 441.0, 21.0000
6.881482760, 18.870, 434.0, 20.8327
6.892349240, 18.870, 402.0, 20.0499
6.903215720, 18.870, 367.0, 19.1572
6.914082200, 18.870, 382.0, 19.5448
6.924948680, 18.870, 396.0, 19.8997
6.935815160, 18.870, 380.0, 19.4936
6.946681640, 18.870, 395.0, 19.8746
6.957548120, 18.870, 406.0, 20.1494
6.968414600, 18.870, 370.0, 19.2354
6.979281080, 18.870, 389.0, 19.7231
6.990147560, 18.870, 357.0, 18.8944
7.001014040, 18.870, 393.0, 19.8242
7.011880520, 18.870, 378.0, 19.4422
7.022747000, 18.870, 392.0, 19.7990
7.033613480, 18.870, 399.0, 19.9750
7.044479960, 18.870, 357.0, 18.8944
7.055346440, 18.870, 347.0, 18.6279
7.066212920, 18.870, 364.0, 19.0788
7.077079400, 18.870, 358.0, 18.9209
7.087945880, 18.870, 439.0, 20.9523
7.098812360, 18.870, 410.0, 20.2485
7.109678840, 18.870, 358.0, 18.9209
7.120545320, 18.870, 391.0, 19.7737
7.131411800, 18.870, 380.0, 19.4936
7.142278280, 18.870, 378.0, 19.4422
7.153144760, 18.870, 387.0, 19.6723
7.164011240, 18.870, 373.0, 19.3132
7.174877720, 18.870, 348.0, 18.6548
7.185744200, 18.870, 412.0, 20.2978
7.196610680, 18.870, 363.0, 19.0526
7.207477160, 18.870, 369.0, 19.2094
7.218343640, 18.870, 393.0, 19.8242
7.229210120, 18.870, 386.0, 19.6469
7.240076600, 18.870, 372.0, 19.2873
7.250943080, 18.870, 375.0, 19.3649
7.261809560, 18.870, 383.0, 19.5704
7.272676040, 18.870, 414.0, 20.3470
7.283542520, 18.870, 370.0, 19.2354
7.294409000, 18.870, 411.0, 20.2731
7.305275480, 18.870, 369.0, 19.2094
7.316141960, 18.870, 394.0, 19.8494
7.327008440, 18.870, 394.0, 19.8494
7.337874920, 18.870, 402.0, 20.0499
7.348741400, 18.870, 366.0, 19.1311
7.359607880, 18.870, 399.0, 19.9750
7.370474360, 18.870, 411.0, 20.2731
7.381340840, 18.870, 395.0, 19.8746
7.392207320, 18.870, 396.0, 19.8997
7.403073800, 18.870, 356.0, 18.8680
7.413940280, 18.870, 360.0, 18.9737
7.424806760, 18.870, 371.0, 19.2614
7.435673240, 18.870, 379.0, 19.4679
7.446539720, 18.870, 397.0, 19.9249
7.457406200, 18.870, 395.0, 19.8746
7.468272680, 18.870, 375.0, 19.3649
7.479139160, 18.870, 355.0, 18.8414
7.490005640, 18.870, 362.0, 19.0263
7.500872120, 18.870, 394.0, 19.8494
7.511738600, 18.870, 385.0, 19.6214
7.522605080, 18.870, 367.0, 19.1572
7.533471560, 18.870, 369.0, 19.2094
7.544338040, 18.870, 400.0, 20.0000
7.555204520, 18.870, 366.0, 19.1311
7.566071000, 18.870, 359.0, 18.9473
7.576937480, 18.870, 394.0, 19.8494
7.587803960, 18.870, 355.0, 18.8414
7.598670440, 18.870, 398.0, 19.9499
7.609536920, 18.870, 404.0, 20.0998
7.620403400, 18.870, 379.0, 19.4679
7.631269880, 18.870, 404.0, 20.0998
7.642136360, 18.870, 412.0, 20.2978
7.653002840, 18.870, 374.0, 19.3391
7.663869320, 18.870, 364.0, 19.0788
7.674735800, 18.870, 392.0, 19.7990
7.685602280, 18.870, 400.0, 20.0000
7.696468760, 18.870, 359.0, 18.9473
7.707335240, 18.870, 388.0, 19.6977
7.718201720, 18.870, 357.0, 18.8944
7.729068200, 18.870, 407.0, 20.1742
7.739934680, 18.870, 423.0, 20.5670
7.750801160, 18.870, 380.0, 19.4936
7.761667640, 18.870, 399.0, 19.9750
7.772534120, 18.870, 372.0, 19.2873
7.783400600, 18.870, 426.0, 20.6398
7.794267080, 18.870, 402.0, 20.0499
7.805133560, 18.870, 393.0, 19.8242
7.816000040, 18.870, 363.0, 19.0526
7.826866520, 18.870, 371.0, 19.2614
7.837733000, 18.870, 329.0, 18.1384
7.848599480, 18.870, 428.0, 20.6882
7.859465960, 18.870, 382.0, 19.5448
7.870332440, 18.870, 364.0, 19.0788
7.881198920, 18.870, 393.0, 19.8242
7.892065400, 18.870, 391.0, 19.7737
7.902931880, 18.870, 395.0, 19.8746
7.913798360, 18.870, 363.0, 19.0526
7.924664840, 18.870, 403.0, 20.0749
7.935531320, 18.870, 418.0, 20.4450
7.946397800, 18.870, 391.0, 19.7737
7.957264280, 18.870, 377.0, 19.4165
7.968130760, 18.870, 408.0, 20.1990
7.978997240, 18.870, 394.0, 19.8494
7.989863720, 18.870, 398.0, 19.9499
8.000730200, 18.870, 403.0, 20.0749
8.011596680, 18.870, 396.0, 19.8997
8.022463160, 18.870, 392.0, 19.7990
8.033329640, 18.870, 398.0, 19.9499
8.044196120, 18.870, 402.0, 20.0499
8.055062600, 18.870, 396.0, 19.8997
8.065929080, 18.870, 386.0, 19.6469
8.076795560, 18.870, 417.0, 20.4206
8.087662040, 18.870, 371.0, 19.2614
8.098528520, 18.870, 369.0, 19.2094
8.109395000, 18.870, 401.0, 20.0250
8.120261480, 18.870, 380.0, 19.4936
8.131127960, 18.870, 437.0, 20.9045
8.141994440, 18.870, 389.0, 19.7231
8.152860920, 18.870, 427.0, 20.6640
8.163727400, 18.870, 405.0, 20.1246
8.174593880, 18.870, 399.0, 19.9750
8.185460360, 18.870, 373.0, 19.3132
8.196326840, 18.870, 414.0, 20.3470
8.207193320, 18.870, 383.0, 19.5704
8.218059800, 18.870, 409.0, 20.2237
8.228926280, 18.870, 398.0, 19.9499
8.239792760, 18.870, 383.0, 19.5704
8.250659240, 18.870, 409.0, 20.2237
8.261525720, 18.870, 390.0, 19.7484
8.272392200, 18.870, 433.0, 20.8087
8.283258680, 18.870, 397.0, 19.9249
8.294125160, 18.870, 365.0, 19.1050
8.304991640, 18.870, 406.0, 20.1494
8.315858120, 18.870, 354.0, 18.8149
8.326724600, 18.870, 380.0, 19.4936
8.337591080, 18.870, 405.0, 20.1246
8.348457560, 18.870, 430.0, 20.7364
8.359324040, 18.870, 411.0, 20.2731
8.370190520, 18.870, 413.0, 20.3224
8.381057000, 18.870, 426.0, 20.6398
8.391923480, 18.870, 399.0, 19.9750
8.402789960, 18.870, 405.0, 20.1246
8.413656440, 18.870, 429.0, 20.7123
8.424522920, 18.870, 398.0, 19.9499
8.435389400, 18.870, 374.0, 19.3391
8.446255880, 18.870, 431.0, 20.7605
8.457122360, 18.870, 451.0, 21.2368
8.467988840, 18.870, 405.0, 20.1246
8.478855320, 18.870, 412.0, 20.2978
8.489721800, 18.870, 364.0, 19.0788
8.500588280, 18.870, 426.0, 20.6398
8.511454760, 18.870, 416.0, 20.3961
8.522321240, 18.870, 418.0, 20.4450
8.533187720, 18.870, 417.0, 20.4206
8.544054200, 18.870, 390.0, 19.7484
8.554920680, 18.870, 383.0, 19.5704
8.565787160, 18.870, 408.0, 20.1990
8.576653640, 18.870, 389.0, 19.7231
8.587520120, 18.870, 377.0, 19.4165
8.598386600, 18.870, 401.0, 20.0250
8.609253080, 18.870, 409.0, 20.2237
8.620119560, 18.870, 395.0, 19.8746
8.630986040, 18.870, 389.0, 19.7231
8.641852520, 18.870, 409.0, 20.2237
8.652719000, 18.870, 392.0, 19.7990
8.663585480, 18.870, 421.0, 20.5183
8.674451960, 18.870, 439.0, 20.9523
8.685318440, 18.870, 389.0, 19.7231
8.696184920, 18.870, 448.0, 21.1660
8.707051400, 18.870, 379.0, 19.4679
8.717917880, 18.870, 401.0, 20.0250
8.728784360, 18.870, 347.0, 18.6279
8.739650840, 18.870, 376.0, 19.3907
8.750517320, 18.870, 380.0, 19.4936
8.761383800, 18.870, 387.0, 19.6723
8.772250280, 18.870, 417.0, 20.4206
8.783116760, 18.870, 403.0, 20.0749
8.793983240, 18.870, 408.0, 20.1990
8.804849720, 18.870, 404.0, 20.0998
8.815716200, 18.870, 397.0, 19.9249
8.826582680, 18.870, 433.0, 20.8087
8.837449160, 18.870, 373.0, 19.3132
8.848315640, 18.870, 404.0, 20.0998
8.859182120, 18.870, 431.0, 20.7605
8.870048600, 18.870, 385.0, 19.6214
8.880915080, 18.870, 429.0, 20.7123
8.891781560, 18.870, 395.0, 19.8746
8.902648040, 18.870, 408.0, 20.1990
8.913514520, 18.870, 407.0, 20.1742
8.924381000, 18.870, 430.0, 20.7364
8.935247480, 18.870, 421.0, 20.5183
8.946113960, 18.870, 479.0, 21.8861
8.956980440, 18.870, 408.0, 20.1990
8.967846920, 18.870, 426.0, 20.6398
8.978713400, 18.870, 443.0, 21.0476
8.989579880, 18.870, 417.0, 20.4206
9.000446360, 18.870, 430.0, 20.7364
9.011312840, 18.870, 405.0, 20.1246
9.022179320, 18.870, 451.0, 21.2368
9.033045800, 18.870, 410.0, 20.2485
9.043912280, 18.870, 423.0, 20.5670
9.054778760, 18.870, 433.0, 20.8087
9.065645240, 18.870, 412.0, 20.2978
9.076511720, 18.870, 443.0, 21.0476
9.087378200, 18.870, 472.0, 21.7256
9.098244680, 18.870, 427.0, 20.6640
9.109111160, 18.870, 451.0, 21.2368
9.119977640, 18.870, 463.0, 21.5174
9.130844120, 18.870, 405.0, 20.1246
9.141710600, 18.870, 399.0, 19.9750
9.152577080, 18.870, 445.0, 21.0950
9.163443560, 18.870, 426.0, 20.6398
9.174310040, 18.870, 400.0, 20.0000
9.185176520, 18.870, 409.0, 20.2237
9.196043000, 18.870, 440.0, 20.9762
9.206909480, 18.870, 416.0, 20.3961
9.217775960, 18.870, 448.0, 21.1660
9.228642440, 18.870, 445.0, 21.0950
9.239508920, 18.870, 433.0, 20.8087
9.250375400, 18.870, 432.0, 20.7846
9.261241880, 18.870, 474.0, 21.7715
9.272108360, 18.870, 462.0, 21.4942
9.282974840, 18.870, 441.0, 21.0000
9.293841320, 18.870, 477.0, 21.8403
9.304707800, 18.870, 426.0, 20.6398
9.315574280, 18.870, 469.0, 21.6564
9.326440760, 18.870, 448.0, 21.1660
9.337307240, 18.870, 504.0, 22.4499
9.348173720, 18.870, 487.0, 22.0681
9.359040200, 18.870, 487.0, 22.0681
9.369906680, 18.870, 459.0, 21.4243
9.380773160, 18.870, 477.0, 21.8403
9.391639640, 18.870, 474.0, 21.7715
9.402506120, 18.870, 442.0, 21.0238
9.413372600, 18.870, 493.0, 22.2036
9.424239080, 18.870, 483.0, 21.9773
9.435105560, 18.870, 484.0, 22.0000
9.445972040, 18.870, 529.0, 23.0000
9.456838520, 18.870, 488.0, 22.0907
9.467705000, 18.870, 554.0, 23.5372
9.478571480, 18.870, 536.0, 23.1517
9.489437960, 18.870, 520.0, 22.8035
9.500304440, 18.870, 520.0, 22.8035
9.511170920, 18.870, 506.0, 22.4944
9.522037400, 18.870, 568.0, 23.8328
9.532903880, 18.870, 567.0, 23.8118
9.543770360, 18.870, 552.0, 23.4947
9.554636840, 18.870, 584.0, 24.1661
9.565503320, 18.870, 550.0, 23.4521
9.576369800, 18.870, 568.0, 23.8328
9.587236280, 18.870, 588.0, 24.2487
9.598102760, 18.870, 578.0, 24.0416
9.608969240, 18.870, 600.0, 24.4949
9.619835720, 18.870, 604.0, 24.5764
9.630702200, 18.870, 615.0, 24.7992
9.641568680, 18.870, 573.0, 23.9374
9.652435160, 18.870, 562.0, 23.7065
9.663301640, 18.870, 593.0, 24.3516
9.674168120, 18.870, 598.0, 24.4540
9.685034600, 18.870, 562.0, 23.7065
9.695901080, 18.870, 512.0, 22.6274
9.706767560, 18.870, 534.0, 23.1084
9.717634040, 18.870, 497.0, 22.2935
9.728500520, 18.870, 493.0, 22.2036
9.739367000, 18.870, 419.0, 20.4695
9.750233480, 18.870, 450.0, 21.2132
9.761099960, 18.870, 450.0, 21.2132
9.771966440, 18.870, 414.0, 20.3470
9.782832920, 18.870, 477.0, 21.8403
9.793699400, 18.870, 470.0, 21.6795
9.804565880, 18.870, 442.0, 21.0238
9.815432360, 18.870, 466.0, 21.5870
9.826298840, 18.870, 439.0, 20.9523
9.837165320, 18.870, 428.0, 20.6882
9.848031800, 18.870, 458.0, 21.4009
9.858898280, 18.870, 447.0, 21.1424
9.869764760, 18.870, 445.0, 21.0950
9.880631240, 18.870, 489.0, 22.1133
9.891497720, 18.870, 451.0, 21.2368
9.902364200, 18.870, 457.0, 21.3776
9.913230680, 18.870, 440.0, 20.9762
9.924097160, 18.870, 427.0, 20.6640
9.934963640, 18.870, 484.0, 22.0000
9.945830120, 18.870, 424.0, 20.5913
9.956696600, 18.870, 463.0, 21.5174
9.967563080, 18.870, 424.0, 20.5913
9.978429560, 18.870, 486.0, 22.0454
9.989296040, 18.870, 422.0, 20.5426
10.000162520, 18.870, 478.0, 21.8632
10.011029000, 18.870, 444.0, 21.0713
10.021895480, 18.870, 435.0, 20.8567
10.032761960, 18.870, 440.0, 20.9762
10.043628440, 18.870, 473.0, 21.7486
10.054494920, 18.870, 449.0, 21.1896
10.065361400, 18.870, 459.0, 21.4243
10.076227880, 18.870, 436.0, 20.8806
10.087094360, 18.870, 412.0, 20.2978
10.097960840, 18.870, 462.0, 21.4942
10.108827320, 18.870, 442.0, 21.0238
10.119693800, 18.870, 420.0, 20.4939
10.130560280, 18.870, 441.0, 21.0000
10.141426760, 18.870, 415.0, 20.3715
10.152293240, 18.870, 453.0, 21.2838
10.163159720, 18.870, 424.0, 20.5913
10.174026200, 18.870, 427.0, 20.6640
10.184892680, 18.870, 449.0, 21.1896
10.195759160, 18.870, 441.0, 21.0000
10.206625640, 18.870, 425.0, 20.6155
10.217492120, 18.870, 438.0, 20.9284
10.228358600, 18.870, 446.0, 21.1187
10.239225080, 18.870, 388.0, 19.6977
10.250091560, 18.870, 401.0, 20.0250
10.260958040, 18.870, 460.0, 21.4476
10.271824520, 18.870, 445.0, 21.0950
10.282691000, 18.870, 433.0, 20.8087
10.293557480, 18.870, 507.0, 22.5167
10.304423960, 18.870, 454.0, 21.3073
10.315290440, 18.870, 468.0, 21.6333
10.326156920, 18.870, 468.0, 21.6333
10.337023400, 18.870, 443.0, 21.0476
10.347889880, 18.870, 460.0, 21.4476
10.358756360, 18.870, 472.0, 21.7256
10.369622840, 18.870, 413.0, 20.3224
10.380489320, 18.870, 469.0, 21.6564
10.391355800, 18.870, 454.0, 21.3073
10.402222280, 18.870, 453.0, 21.2838
10.413088760, 18.870, 434.0, 20.8327
10.423955240, 18.870, 451.0, 21.2368
10.434821720, 18.870, 425.0, 20.6155
10.445688200, 18.870, 443.0, 21.0476
10.456554680, 18.870, 424.0, 20.5913
10.467421160, 18.870, 423.0, 20.5670
10.478287640, 18.870, 460.0, 21.4476
10.489154120, 18.870, 444.0, 21.0713
10.500020600, 18.870, 436.0, 20.8806
10.510887080, 18.870, 426.0, 20.6398
10.521753560, 18.870, 435.0, 20.8567
10.532620040, 18.870, 407.0, 20.1742
10.543486520, 18.870, 443.0, 21.0476
10.554353000, 18.870, 407.0, 20.1742
10.565219480, 18.870, 406.0, 20.1494
10.576085960, 18.870, 415.0, 20.3715
10.586952440, 18.870, 417.0, 20.4206
10.597818920, 18.870, 419.0, 20.4695
10.608685400, 18.870, 452.0, 21.2603
10.619551880, 18.870, 452.0, 21.2603
10.630418360, 18.870, 378.0, 19.4422
10.641284840, 18.870, 392.0, 19.7990
10.652151320, 18.870, 450.0, 21.2132
10.663017800, 18.870, 417.0, 20.4206
10.673884280, 18.870, 439.0, 20.9523
10.684750760, 18.870, 408.0, 20.1990
10.695617240, 18.870, 394.0, 19.8494
10.706483720, 18.870, 389.0, 19.7231
10.717350200, 18.870, 435.0, 20.8567
10.728216680, 18.870, 436.0, 20.8806
10.739083160, 18.870, 433.0, 20.8087
10.749949640, 18.870, 439.0, 20.9523
10.760816120, 18.870, 465.0, 21.5639
10.771682600, 18.870, 454.0, 21.3073
10.782549080, 18.870, 401.0, 20.0250
10.793415560, 18.870, 424.0, 20.5913
10.804282040, 18.870, 419.0, 20.4695
10.815148520, 18.870, 404.0, 20.0998
10.826015000, 18.870, 429.0, 20.7123
10.836881480, 18.870, 396.0, 19.8997
10.847747960, 18.870, 427.0, 20.6640
10.858614440, 18.870, 446.0, 21.1187
10.869480920, 18.870, 442.0, 21.0238
10.880347400, 18.870, 416.0, 20.3961
10.891213880, 18.870, 447.0, 21.1424
10.902080360, 18.870, 396.0, 19.8997
10.912946840, 18.870, 385.0, 19.6214
10.923813320, 18.870, 421.0, 20.5183
10.934679800, 18.870, 452.0, 21.2603
10.945546280, 18.870, 422.0, 20.5426
10.956412760, 18.870, 436.0, 20.8806
10.967279240, 18.870, 408.0, 20.1990
10.978145720, 18.870, 421.0, 20.5183
10.989012200, 18.870, 414.0, 20.3470
10.999878680, 18.870, 442.0, 21.0238
11.010745160, 18.870, 430.0, 20.7364
11.021611640, 18.870, 423.0, 20.5670
11.032478120, 18.870, 426.0, 20.6398
11.043344600, 18.870, 412.0, 20.2978
11.054211080, 18.870, 432.0, 20.7846
11.065077560, 18.870, 440.0, 20.9762
11.075944040, 18.870, 471.0, 21.7025
11.086810520, 18.870, 425.0, 20.6155
11.097677000, 18.870, 411.0, 20.2731
11.108543480, 18.870, 428.0, 20.6882
11.119409960, 18.870, 426.0, 20.6398
11.130276440, 18.870, 408.0, 20.1990
11.141142920, 18.870, 418.0, 20.4450
11.152009400, 18.870, 403.0, 20.0749
11.162875880, 18.870, 418.0, 20.4450
11.173742360, 18.870, 434.0, 20.8327
11.184608840, 18.870, 463.0, 21.5174
11.195475320, 18.870, 410.0, 20.2485
11.206341800, 18.870, 414.0, 20.3470
11.217208280, 18.870, 401.0, 20.0250
11.228074760, 18.870, 438.0, 20.9284
11.238941240, 18.870, 439.0, 20.9523
11.249807720, 18.870, 450.0, 21.2132
11.260674200, 18.870, 429.0, 20.7123
11.271540680, 18.870, 431.0, 20.7605
11.282407160, 18.870, 438.0, 20.9284
11.293273640, 18.870, 433.0, 20.8087
11.304140120, 18.870, 419.0, 20.4695
11.315006600, 18.870, 386.0, 19.6469
11.325873080, 18.870, 385.0, 19.6214
11.336739560, 18.870, 412.0, 20.2978
11.347606040, 18.870, 386.0, 19.6469
11.358472520, 18.870, 425.0, 20.6155
11.369339000, 18.870, 410.0, 20.2485
11.380205480, 18.870, 387.0, 19.6723
11.391071960, 18.870, 402.0, 20.0499
11.401938440, 18.870, 407.0, 20.1742
11.412804920, 18.870, 410.0, 20.2485
11.423671400, 18.870, 402.0, 20.0499
11.434537880, 18.870, 418.0, 20.4450
11.445404360, 18.870, 441.0, 21.0000
11.456270840, 18.870, 401.0, 20.0250
11.467137320, 18.870, 401.0, 20.0250
11.478003800, 18.870, 399.0, 19.9750
11.488870280, 18.870, 421.0, 20.5183
11.499736760, 18.870, 430.0, 20.7364
11.510603240, 18.870, 422.0, 20.5426
11.521469720, 18.870, 413.0, 20.3224
11.532336200, 18.870, 394.0, 19.8494
11.543202680, 18.870, 450.0, 21.2132
11.554069160, 18.870, 438.0, 20.9284
11.564935640, 18.870, 400.0, 20.0000
11.575802120, 18.870, 407.0, 20.1742
11.586668600, 18.870, 404.0, 20.0998
11.597535080, 18.870, 401.0, 20.0250
11.608401560, 18.870, 428.0, 20.6882
11.619268040, 18.870, 395.0, 19.8746
11.630134520, 18.870, 413.0, 20.3224
11.641001000, 18.870, 433.0, 20.8087
11.651867480, 18.870, 425.0, 20.6155
11.662733960, 18.870, 402.0, 20.0499
11.673600440, 18.870, 437.0, 20.9045
11.684466920, 18.870, 448.0, 21.1660
11.695333400, 18.870, 418.0, 20.4450
11.706199880, 18.870, 408.0, 20.1990
11.717066360, 18.870, 422.0, 20.5426
11.727932840, 18.870, 422.0, 20.5426
11.738799320, 18.870, 403.0, 20.0749
11.749665800, 18.870, 437.0, 20.9045
11.760532280, 18.870, 424.0, 20.5913
11.771398760, 18.870, 430.0, 20.7364
11.782265240, 18.870, 463.0, 21.5174
11.793131720, 18.870, 440.0, 20.9762
11.803998200, 18.870, 434.0, 20.8327
11.814864680, 18.870, 412.0, 20.2978
11.825731160, 18.870, 426.0, 20.6398
11.836597640, 18.870, 467.0, 21.6102
11.847464120, 18.870, 441.0, 21.0000
11.858330600, 18.870, 430.0, 20.7364
11.869197080, 18.870, 443.0, 21.0476
11.880063560, 18.870, 465.0, 21.5639
11.890930040, 18.870, 475.0, 21.7945
11.901796520, 18.870, 406.0, 20.1494
11.912663000, 18.870, 476.0, 21.8174
11.923529480, 18.870, 446.0, 21.1187
11.934395960, 18.870, 443.0, 21.0476
11.945262440, 18.870, 480.0, 21.9089
11.956128920, 18.870, 402.0, 20.0499
11.966995400, 18.870, 440.0, 20.9762
11.977861880, 18.870, 449.0, 21.1896
11.988728360, 18.870, 499.0, 22.3383
11.999594840, 18.870, 465.0, 21.5639
12.010461320, 18.870, 481.0, 21.9317
12.021327800, 18.870, 485.0, 22.0227
12.032194280, 18.870, 506.0, 22.4944
12.043060760, 18.870, 495.0, 22.2486
12.053927240, 18.870, 457.0, 21.3776
12.064793720, 18.870, 535.0, 23.1301
12.075660200, 18.870, 493.0, 22.2036
12.086526680, 18.870, 481.0, 21.9317
12.097393160, 18.870, 477.0, 21.8403
12.108259640, 18.870, 534.0, 23.1084
12.119126120, 18.870, 520.0, 22.8035
12.129992600, 18.870, 538.0, 23.1948
12.140859080, 18.870, 612.0, 24.7386
12.151725560, 18.870, 579.0, 24.0624
12.162592040, 18.870, 600.0, 24.4949
12.173458520, 18.870, 602.0, 24.5357
12.184325000, 18.870, 610.0, 24.6982
12.195191480, 18.870, 602.0, 24.5357
12.206057960, 18.870, 626.0, 25.0200
12.216924440, 18.870, 675.0, 25.9808
12.227790920, 18.870, 608.0, 24.6577
12.238657400, 18.870, 649.0, 25.4755
12.249523880, 18.870, 673.0, 25.9422
12.260390360, 18.870, 719.0, 26.8142
12.271256840, 18.870, 702.0, 26.4953
12.282123320, 18.870, 676.0, 26.0000
12.292989800, 18.870, 758.0, 27.5318
12.303856280, 18.870, 713.0, 26.7021
12.314722760, 18.870, 790.0, 28.1069
12.325589240, 18.870, 753.0, 27.4408
12.336455720, 18.870, 759.0, 27.5500
12.347322200, 18.870, 747.0, 27.3313
12.358188680, 18.870, 735.0, 27.1109
12.369055160, 18.870, 711.0, 26.6646
12.379921640, 18.870, 778.0, 27.8927
12.390788120, 18.870, 699.0, 26.4386
12.401654600, 18.870, 669.0, 25.8650
12.412521080, 18.870, 650.0, 25.4951
12.423387560, 18.870, 584.0, 24.1661
12.434254040, 18.870, 540.0, 23.2379
12.445120520, 18.870, 541.0, 23.2594
12.455987000, 18.870, 472.0, 21.7256
12.466853480, 18.870, 412.0, 20.2978
12.477719960, 18.870, 432.0, 20.7846
12.488586440, 18.870, 413.0, 20.3224
12.499452920, 18.870, 448.0, 21.1660
12.510319400, 18.870, 426.0, 20.6398
12.521185880, 18.870, 473.0, 21.7486
12.532052360, 18.870, 426.0, 20.6398
12.542918840, 18.870, 390.0, 19.7484
12.553785320, 18.870, 427.0, 20.6640
12.564651800, 18.870, 425.0, 20.6155
12.575518280, 18.870, 425.0, 20.6155
12.586384760, 18.870, 412.0, 20.2978
12.597251240, 18.870, 400.0, 20.0000
12.608117720, 18.870, 413.0, 20.3224
12.618984200, 18.870, 413.0, 20.3224
12.629850680, 18.870, 410.0, 20.2485
12.640717160, 18.870, 474.0, 21.7715
12.651583640, 18.870, 385.0, 19.6214
12.662450120, 18.870, 424.0, 20.5913
12.673316600, 18.870, 392.0, 19.7990
12.684183080, 18.870, 444.0, 21.0713
12.695049560, 18.870, 421.0, 20.5183
12.705916040, 18.870, 406.0, 20.1494
12.716782520, 18.870, 424.0, 20.5913
12.727649000, 18.870, 370.0, 19.2354
12.738515480, 18.870, 403.0, 20.0749
12.749381960, 18.870, 431.0, 20.7605
12.760248440, 18.870, 397.0, 19.9249
12.771114920, 18.870, 434.0, 20.8327
12.781981400, 18.870, 419.0, 20.4695
12.792847880, 18.870, 434.0, 20.8327
12.803714360, 18.870, 446.0, 21.1187
12.814580840, 18.870, 419.0, 20.4695
12.825447320, 18.870, 434.0, 20.8327
12.836313800, 18.870, 440.0, 20.9762
12.847180280, 18.870, 414.0, 20.3470
12.858046760, 18.870, 394.0, 19.8494
12.868913240, 18.870, 374.0, 19.3391
12.879779720, 18.870, 427.0, 20.6640
12.890646200, 18.870, 448.0, 21.1660
12.901512680, 18.870, 417.0, 20.4206
12.912379160, 18.870, 391.0, 19.7737
12.923245640, 18.870, 407.0, 20.1742
12.934112120, 18.870, 412.0, 20.2978
12.944978600, 18.870, 444.0, 21.0713
12.955845080, 18.870, 478.0, 21.8632
12.966711560, 18.870, 418.0, 20.4450
12.977578040, 18.870, 421.0, 20.5183
12.988444520, 18.870, 378.0, 19.4422
12.999311000, 18.870, 456.0, 21.3542
13.010177480, 18.870, 410.0, 20.2485
13.021043960, 18.870, 406.0, 20.1494
13.031910440, 18.870, 411.0, 20.2731
13.042776920, 18.870, 405.0, 20.1246
13.053643400, 18.870, 400.0, 20.0000
13.064509880, 18.870, 424.0, 20.5913
13.075376360, 18.870, 407.0, 20.1742
13.086242840, 18.870, 410.0, 20.2485
13.097109320, 18.870, 409.0, 20.2237
13.107975800, 18.870, 430.0, 20.7364
13.118842280, 18.870, 426.0, 20.6398
13.129708760, 18.870, 391.0, 19.7737
13.140575240, 18.870, 409.0, 20.2237
13.151441720, 18.870, 388.0, 19.6977
13.162308200, 18.870, 404.0, 20.0998
13.173174680, 18.870, 416.0, 20.3961
13.184041160, 18.870, 445.0, 21.0950
13.194907640, 18.870, 460.0, 21.4476
13.205774120, 18.870, 405.0, 20.1246
13.216640600, 18.870, 385.0, 19.6214
13.227507080, 18.870, 415.0, 20.3715
13.238373560, 18.870, 421.0, 20.5183
13.249240040, 18.870, 407.0, 20.1742
13.260106520, 18.870, 388.0, 19.6977
13.270973000, 18.870, 374.0, 19.3391
13.281839480, 18.870, 372.0, 19.2873
13.292705960, 18.870, 454.0, 21.3073
13.303572440, 18.870, 390.0, 19.7484
13.314438920, 18.870, 420.0, 20.4939
13.325305400, 18.870, 430.0, 20.7364
13.336171880, 18.870, 434.0, 20.8327
13.347038360, 18.870, 398.0, 19.9499
13.357904840, 18.870, 382.0, 19.5448
13.368771320, 18.870, 403.0, 20.0749
13.379637800, 18.870, 413.0, 20.3224
13.390504280, 18.870, 408.0, 20.1990
13.401370760, 18.870, 412.0, 20.2978
13.412237240, 18.870, 405.0, 20.1246
13.423103720, 18.870, 415.0, 20.3715
13.433970200, 18.870, 413.0, 20.3224
13.444836680, 18.870, 381.0, 19.5192
13.455703160, 18.870, 422.0, 20.5426
13.466569640, 18.870, 401.0, 20.0250
13.477436120, 18.870, 426.0, 20.6398
13.488302600, 18.870, 409.0, 20.2237
13.499169080, 18.870, 423.0, 20.5670
13.510035560, 18.870, 412.0, 20.2978
13.520902040, 18.870, 415.0, 20.3715
13.531768520, 18.870, 436.0, 20.8806
13.542635000, 18.870, 414.0, 20.3470
13.553501480, 18.870, 415.0, 20.3715
13.564367960, 18.870, 390.0, 19.7484
13.575234440, 18.870, 423.0, 20.5670
13.586100920, 18.870, 395.0, 19.8746
13.596967400, 18.870, 467.0, 21.6102
13.607833880, 18.870, 419.0, 20.4695
13.618700360, 18.870, 446.0, 21.1187
13.629566840, 18.870, 425.0, 20.6155
13.640433320, 18.870, 458.0, 21.4009
13.651299800, 18.870, 399.0, 19.9750
13.662166280, 18.870, 421.0, 20.5183
13.673032760, 18.870, 432.0, 20.7846
13.683899240, 18.870, 440.0, 20.9762
13.694765720, 18.870, 473.0, 21.7486
13.705632200, 18.870, 403.0, 20.0749
13.716498680, 18.870, 469.0, 21.6564
13.727365160, 18.870, 407.0, 20.1742
13.738231640, 18.870, 431.0, 20.7605
13.749098120, 18.870, 478.0, 21.8632
13.759964600, 18.870, 440.0, 20.9762
13.770831080, 18.870, 470.0, 21.6795
13.781697560, 18.870, 460.0, 21.4476
13.792564040, 18.870, 442.0, 21.0238
13.803430520, 18.870, 442.0, 21.0238
13.814297000, 18.870, 450.0, 21.2132
13.825163480, 18.870, 417.0, 20.4206
13.836029960, 18.870, 445.0, 21.0950
13.846896440, 18.870, 511.0, 22.6053
13.857762920, 18.870, 451.0, 21.2368
13.868629400, 18.870, 491.0, 22.1585
13.879495880, 18.870, 512.0, 22.6274
13.890362360, 18.870, 480.0, 21.9089
13.901228840, 18.870, 419.0, 20.4695
13.912095320, 18.870, 531.0, 23.0434
13.922961800, 18.870, 441.0, 21.0000
13.933828280, 18.870, 424.0, 20.5913
13.944694760, 18.870, 458.0, 21.4009
13.955561240, 18.870, 447.0, 21.1424
13.966427720, 18.870, 464.0, 21.5407
13.977294200, 18.870, 449.0, 21.1896
13.988160680, 18.870, 467.0, 21.6102
13.999027160, 18.870, 467.0, 21.6102
14.009893640, 18.870, 505.0, 22.4722
14.020760120, 18.870, 468.0, 21.6333
14.031626600, 18.870, 469.0, 21.6564
14.042493080, 18.870, 505.0, 22.4722
14.053359560, 18.870, 496.0, 22.2711
14.064226040, 18.870, 453.0, 21.2838
14.075092520, 18.870, 541.0, 23.2594
14.085959000, 18.870, 543.0, 23.3024
14.096825480, 18.870, 553.0, 23.5160
14.107691960, 18.870, 498.0, 22.3159
14.118558440, 18.870, 532.0, 23.0651
14.129424920, 18.870, 492.0, 22.1811
14.140291400, 18.870, 527.0, 22.9565
14.151157880, 18.870, 549.0, 23.4307
14.162024360, 18.870, 534.0, 23.1084
14.172890840, 18.870, 560.0, 23.6643
14.183757320, 18.870, 574.0, 23.9583
14.194623800, 18.870, 615.0, 24.7992
14.205490280, 18.870, 549.0, 23.4307
14.216356760, 18.870, 637.0, 25.2389
14.227223240, 18.870, 615.0, 24.7992
14.238089720, 18.870, 653.0, 25.5539
14.248956200, 18.870, 626.0, 25.0200
14.259822680, 18.870, 648.0, 25.4558
14.270689160, 18.870, 612.0, 24.7386
14.281555640, 18.870, 621.0, 24.9199
14.292422120, 18.870, 614.0, 24.7790
14.303288600, 18.870, 621.0, 24.9199
14.314155080, 18.870, 632.0, 25.1396
14.325021560, 18.870, 576.0, 24.0000
14.335888040, 18.870, 612.0, 24.7386
14.346754520, 18.870, 572.0, 23.9165
14.357621000, 18.870, 519.0, 22.7816
14.368487480, 18.870, 515.0, 22.6936
14.379353960, 18.870, 513.0, 22.6495
14.390220440, 18.870, 478.0, 21.8632
14.401086920, 18.870, 488.0, 22.0907
14.411953400, 18.870, 485.0, 22.0227
14.422819880, 18.870, 449.0, 21.1896
14.433686360, 18.870, 440.0, 20.9762
14.444552840, 18.870, 423.0, 20.5670
14.455419320, 18.870, 451.0, 21.2368
14.466285800, 18.870, 449.0, 21.1896
14.477152280, 18.870, 411.0, 20.2731
14.488018760, 18.870, 440.0, 20.9762
14.498885240, 18.870, 419.0, 20.4695
14.509751720, 18.870, 458.0, 21.4009
14.520618200, 18.870, 430.0, 20.7364
14.531484680, 18.870, 442.0, 21.0238
14.542351160, 18.870, 416.0, 20.3961
14.553217640, 18.870, 464.0, 21.5407
14.564084120, 18.870, 473.0, 21.7486
14.574950600, 18.870, 423.0, 20.5670
14.585817080, 18.870, 429.0, 20.7123
14.596683560, 18.870, 434.0, 20.8327
14.607550040, 18.870, 412.0, 20.2978
14.618416520, 18.870, 429.0, 20.7123
14.629283000, 18.870, 410.0, 20.2485
14.640149480, 18.870, 465.0, 21.5639
14.651015960, 18.870, 418.0, 20.4450
14.661882440, 18.870, 413.0, 20.3224
14.672748920, 18.870, 403.0, 20.0749
14.683615400, 18.870, 412.0, 20.2978
14.694481880, 18.870, 409.0, 20.2237
14.705348360, 18.870, 405.0, 20.1246
14.716214840, 18.870, 420.0, 20.4939
14.727081320, 18.870, 435.0, 20.8567
14.737947800, 18.870, 418.0, 20.4450
14.748814280, 18.870, 388.0, 19.6977
14.759680760, 18.870, 419.0, 20.4695
14.770547240, 18.870, 419.0, 20.4695
14.781413720, 18.870, 417.0, 20.4206
14.792280200, 18.870, 435.0, 20.8567
14.803146680, 18.870, 480.0, 21.9089
14.814013160, 18.870, 441.0, 21.0000
14.824879640, 18.870, 403.0, 20.0749
14.835746120, 18.870, 419.0, 20.4695
14.846612600, 18.870, 469.0, 21.6564
14.857479080, 18.870, 424.0, 20.5913
14.868345560, 18.870, 447.0, 21.1424
14.879212040, 18.870, 442.0, 21.0238
14.890078520, 18.870, 470.0, 21.6795
14.900945000, 18.870, 462.0, 21.4942
14.911811480, 18.870, 446.0, 21.1187
14.922677960, 18.870, 428.0, 20.6882
14.933544440, 18.870, 421.0, 20.5183
14.944410920, 18.870, 429.0, 20.7123
14.955277400, 18.870, 444.0, 21.0713
14.966143880, 18.870, 440.0, 20.9762
14.977010360, 18.870, 458.0, 21.4009
14.987876840, 18.870, 444.0, 21.0713
14.998743320, 18.870, 470.0, 21.6795
15.009609800, 18.870, 486.0, 22.0454
15.020476280, 18.870, 494.0, 22.2261
15.031342760, 18.870, 419.0, 20.4695
15.042209240, 18.870, 469.0, 21.6564
15.053075720, 18.870, 499.0, 22.3383
15.063942200, 18.870, 452.0, 21.2603
15.074808680, 18.870, 457.0, 21.3776
15.085675160, 18.870, 452.0, 21.2603
15.096541640, 18.870, 475.0, 21.7945
15.107408120, 18.870, 481.0, 21.9317
15.118274600, 18.870, 490.0, 22.1359
15.129141080, 18.870, 486.0, 22.0454
15.140007560, 18.870, 468.0, 21.6333
15.150874040, 18.870, 500.0, 22.3607
15.161740520, 18.870, 460.0, 21.4476
15.172607000, 18.870, 535.0, 23.1301
15.183473480, 18.870, 444.0, 21.0713
15.194339960, 18.870, 477.0, 21.8403
15.205206440, 18.870, 451.0, 21.2368
15.216072920, 18.870, 484.0, 22.0000
15.226939400, 18.870, 540.0, 23.2379
15.237805880, 18.870, 507.0, 22.5167
15.248672360, 18.870, 526.0, 22.9347
15.259538840, 18.870, 538.0, 23.1948
15.270405320, 18.870, 550.0, 23.4521
15.281271800, 18.870, 522.0, 22.8473
15.292138280, 18.870, 583.0, 24.1454
15.303004760, 18.870, 556.0, 23.5797
15.313871240, 18.870, 541.0, 23.2594
15.324737720, 18.870, 534.0, 23.1084
15.335604200, 18.870, 549.0, 23.4307
15.346470680, 18.870, 523.0, 22.8692
15.357337160, 18.870, 554.0, 23.5372
15.368203640, 18.870, 540.0, 23.2379
15.379070120, 18.870, 510.0, 22.5832
15.389936600, 18.870, 582.0, 24.1247
15.400803080, 18.870, 559.0, 23.6432
15.411669560, 18.870, 561.0, 23.6854
15.422536040, 18.870, 582.0, 24.1247
15.433402520, 18.870, 610.0, 24.6982
15.444269000, 18.870, 637.0, 25.2389
15.455135480, 18.870, 653.0, 25.5539
15.466001960, 18.870, 695.0, 26.3629
15.476868440, 18.870, 680.0, 26.0768
15.487734920, 18.870, 719.0, 26.8142
15.498601400, 18.870, 706.0, 26.5707
15.509467880, 18.870, 788.0, 28.0713
15.520334360, 18.870, 807.0, 28.4077
15.531200840, 18.870, 830.0, 28.8097
15.542067320, 18.870, 836.0, 28.9137
15.552933800, 18.870, 942.0, 30.6920
15.563800280, 18.870, 932.0, 30.5287
15.574666760, 18.870, 928.0, 30.4631
15.585533240, 18.870, 991.0, 31.4802
15.596399720, 18.870, 1054.0, 32.4654
15.607266200, 18.870, 1080.0, 32.8634
15.618132680, 18.870, 1167.0, 34.1614
15.628999160, 18.870, 1148.0, 33.8821
15.639865640, 18.870, 1215.0, 34.8569
15.650732120, 18.870, 1355.0, 36.8103
15.661598600, 18.870, 1333.0, 36.5103
15.672465080, 18.870, 1399.0, 37.4032
15.683331560, 18.870, 1376.0, 37.0945
15.694198040, 18.870, 1502.0, 38.7556
15.705064520, 18.870, 1511.0, 38.8716
15.715931000, 18.870, 1719.0, 41.4608
15.726797480, 18.870, 1689.0, 41.0974
15.737663960, 18.870, 1734.0, 41.6413
15.748530440, 18.870, 1886.0, 43.4281
15.759396920, 18.870, 1879.0, 43.3474
15.770263400, 18.870, 1939.0, 44.0341
15.781129880, 18.870, 1923.0, 43.8520
15.791996360, 18.870, 2042.0, 45.1885
15.802862840, 18.870, 2043.0, 45.1996
15.813729320, 18.870, 2083.0, 45.6399
15.824595800, 18.870, 2028.0, 45.0333
15.835462280, 18.870, 1839.0, 42.8836
15.846328760, 18.870, 1692.0, 41.1339
15.857195240, 18.870, 1689.0, 41.0974
15.868061720, 18.870, 1494.0, 38.6523
15.878928200, 18.870, 1320.0, 36.3318
15.889794680, 18.870, 1160.0, 34.0588
15.900661160, 18.870, 945.0, 30.7409
15.911527640, 18.870, 886.0, 29.7658
15.922394120, 18.870, 739.0, 27.1846
15.933260600, 18.870, 696.0, 26.3818
15.944127080, 18.870, 632.0, 25.1396
15.954993560, 18.870, 547.0, 23.3880
15.965860040, 18.870, 565.0, 23.7697
15.976726520, 18.870, 545.0, 23.3452
15.987593000, 18.870, 517.0, 22.7376
15.998459480, 18.870, 483.0, 21.9773
16.009325960, 18.870, 498.0, 22.3159
16.020192440, 18.870, 472.0, 21.7256
16.031058920, 18.870, 510.0, 22.5832
16.041925400, 18.870, 506.0, 22.4944
16.052791880, 18.870, 487.0, 22.0681
16.063658360, 18.870, 511.0, 22.6053
16.074524840, 18.870, 493.0, 22.2036
16.085391320, 18.870, 496.0, 22.2711
16.096257800, 18.870, 537.0, 23.1733
16.107124280, 18.870, 516.0, 22.7156
16.117990760, 18.870, 525.0, 22.9129
16.128857240, 18.870, 512.0, 22.6274
16.139723720, 18.870, 494.0, 22.2261
16.150590200, 18.870, 494.0, 22.2261
16.161456680, 18.870, 502.0, 22.4054
16.172323160, 18.870, 508.0, 22.5389
16.183189640, 18.870, 521.0, 22.8254
16.194056120, 18.870, 521.0, 22.8254
16.204922600, 18.870, 492.0, 22.1811
16.215789080, 18.870, 458.0, 21.4009
16.226655560, 18.870, 482.0, 21.9545
16.237522040, 18.870, 546.0, 23.3666
16.248388520, 18.870, 482.0, 21.9545
16.259255000, 18.870, 527.0, 22.9565
16.270121480, 18.870, 484.0, 22.0000
16.280987960, 18.870, 495.0, 22.2486
16.291854440, 18.870, 493.0, 22.2036
16.302720920, 18.870, 539.0, 23.2164
16.313587400, 18.870, 495.0, 22.2486
16.324453880, 18.870, 536.0, 23.1517
16.335320360, 18.870, 495.0, 22.2486
16.346186840, 18.870, 496.0, 22.2711
16.357053320, 18.870, 405.0, 20.1246
16.367919800, 18.870, 515.0, 22.6936
16.378786280, 18.870, 467.0, 21.6102
16.389652760, 18.870, 469.0, 21.6564
16.400519240, 18.870, 486.0, 22.0454
16.411385720, 18.870, 504.0, 22.4499
16.422252200, 18.870, 474.0, 21.7715
16.433118680, 18.870, 458.0, 21.4009
16.443985160, 18.870, 466.0, 21.5870
16.454851640, 18.870, 452.0, 21.2603
16.465718120, 18.870, 486.0, 22.0454
16.476584600, 18.870, 419.0, 20.4695
16.487451080, 18.870, 454.0, 21.3073
16.498317560, 18.870, 427.0, 20.6640
16.509184040, 18.870, 458.0, 21.4009
16.520050520, 18.870, 423.0, 20.5670
16.530917000, 18.870, 437.0, 20.9045
16.541783480, 18.870, 450.0, 21.2132
16.552649960, 18.870, 452.0, 21.2603
16.563516440, 18.870, 421.0, 20.5183
16.574382920, 18.870, 464.0, 21.5407
16.585249400, 18.870, 432.0, 20.7846
16.596115880, 18.870, 407.0, 20.1742
16.606982360, 18.870, 462.0, 21.4942
16.617848840, 18.870, 423.0, 20.5670
16.628715320, 18.870, 469.0, 21.6564
16.639581800, 18.870, 440.0, 20.9762
16.650448280, 18.870, 449.0, 21.1896
16.661314760, 18.870, 466.0, 21.5870
16.672181240, 18.870, 448.0, 21.1660
16.683047720, 18.870, 445.0, 21.0950
16.693914200, 18.870, 452.0, 21.2603
16.704780680, 18.870, 443.0, 21.0476
16.715647160, 18.870, 454.0, 21.3073
16.726513640, 18.870, 428.0, 20.6882
16.737380120, 18.870, 450.0, 21.2132
16.748246600, 18.870, 440.0, 20.9762
16.759113080, 18.870, 451.0, 21.2368
16.769979560, 18.870, 462.0, 21.4942
16.780846040, 18.870, 460.0, 21.4476
16.791712520, 18.870, 471.0, 21.7025
16.802579000, 18.870, 417.0, 20.4206
16.813445480, 18.870, 468.0, 21.6333
16.824311960, 18.870, 491.0, 22.1585
16.835178440, 18.870, 438.0, 20.9284
16.846044920, 18.870, 498.0, 22.3159
16.856911400, 18.870, 458.0, 21.4009
16.867777880, 18.870, 492.0, 22.1811
16.878644360, 18.870, 458.0, 21.4009
16.889510840, 18.870, 489.0, 22.1133
16.900377320, 18.870, 453.0, 21.2838
16.911243800, 18.870, 441.0, 21.0000
16.922110280, 18.870, 448.0, 21.1660
16.932976760, 18.870, 442.0, 21.0238
16.943843240, 18.870, 428.0, 20.6882
16.954709720, 18.870, 447.0, 21.1424
16.965576200, 18.870, 495.0, 22.2486
16.976442680, 18.870, 470.0, 21.6795
16.987309160, 18.870, 449.0, 21.1896
16.998175640, 18.870, 444.0, 21.0713
17.009042120, 18.870, 430.0, 20.7364
17.019908600, 18.870, 459.0, 21.4243
17.030775080, 18.870, 456.0, 21.3542
17.041641560, 18.870, 477.0, 21.8403
17.052508040, 18.870, 435.0, 20.8567
17.063374520, 18.870, 436.0, 20.8806
17.074241000, 18.870, 440.0, 20.9762
17.085107480, 18.870, 431.0, 20.7605
17.095973960, 18.870, 427.0, 20.6640
17.106840440, 18.870, 479.0, 21.8861
17.117706920, 18.870, 447.0, 21.1424
17.128573400, 18.870, 496.0, 22.2711
17.139439880, 18.870, 458.0, 21.4009
17.150306360, 18.870, 460.0, 21.4476
17.161172840, 18.870, 459.0, 21.4243
17.172039320, 18.870, 384.0, 19.5959
17.182905800, 18.870, 442.0, 21.0238
17.193772280, 18.870, 504.0, 22.4499
17.204638760, 18.870, 470.0, 21.6795
17.215505240, 18.870, 480.0, 21.9089
17.226371720, 18.870, 473.0, 21.7486
17.237238200, 18.870, 465.0, 21.5639
17.248104680, 18.870, 465.0, 21.5639
17.258971160, 18.870, 487.0, 22.0681
17.269837640, 18.870, 486.0, 22.0454
17.280704120, 18.870, 522.0, 22.8473
17.291570600, 18.870, 497.0, 22.2935
17.302437080, 18.870, 482.0, 21.9545
17.313303560, 18.870, 502.0, 22.4054
17.324170040, 18.870, 478.0, 21.8632
17.335036520, 18.870, 547.0, 23.3880
17.345903000, 18.870, 509.0, 22.5610
17.356769480, 18.870, 486.0, 22.0454
17.367635960, 18.870, 477.0, 21.8403
17.378502440, 18.870, 533.0, 23.0868
17.389368920, 18.870, 490.0, 22.1359
17.400235400, 18.870, 512.0, 22.6274
17.411101880, 18.870, 579.0, 24.0624
17.421968360, 18.870, 540.0, 23.2379
17.432834840, 18.870, 577.0, 24.0208
17.443701320, 18.870, 513.0, 22.6495
17.454567800, 18.870, 519.0, 22.7816
17.465434280, 18.870, 549.0, 23.4307
17.476300760, 18.870, 541.0, 23.2594
17.487167240, 18.870, 514.0, 22.6716
17.498033720, 18.870, 510.0, 22.5832
17.508900200, 18.870, 573.0, 23.9374
17.519766680, 18.870, 470.0, 21.6795
17.530633160, 18.870, 530.0, 23.0217
17.541499640, 18.870, 542.0, 23.2809
17.552366120, 18.870, 491.0, 22.1585
17.563232600, 18.870, 554.0, 23.5372
17.574099080, 18.870, 495.0, 22.2486
17.584965560, 18.870, 492.0, 22.1811
17.595832040, 18.870, 523.0, 22.8692
17.606698520, 18.870, 533.0, 23.0868
17.617565000, 18.870, 493.0, 22.2036
17.628431480, 18.870, 508.0, 22.5389
17.639297960, 18.870, 494.0, 22.2261
17.650164440, 18.870, 476.0, 21.8174
17.661030920, 18.870, 453.0, 21.2838
17.671897400, 18.870, 434.0, 20.8327
17.682763880, 18.870, 460.0, 21.4476
17.693630360, 18.870, 463.0, 21.5174
17.704496840, 18.870, 465.0, 21.5639
17.715363320, 18.870, 452.0, 21.2603
17.726229800, 18.870, 488.0, 22.0907
17.737096280, 18.870, 454.0, 21.3073
17.747962760, 18.870, 410.0, 20.2485
17.758829240, 18.870, 461.0, 21.4709
17.769695720, 18.870, 447.0, 21.1424
17.780562200, 18.870, 459.0, 21.4243
17.791428680, 18.870, 462.0, 21.4942
17.802295160, 18.870, 454.0, 21.3073
17.813161640, 18.870, 470.0, 21.6795
17.824028120, 18.870, 419.0, 20.4695
17.834894600, 18.870, 469.0, 21.6564
17.845761080, 18.870, 459.0, 21.4243
17.856627560, 18.870, 464.0, 21.5407
17.867494040, 18.870, 460.0, 21.4476
17.878360520, 18.870, 428.0, 20.6882
17.889227000, 18.870, 429.0, 20.7123
17.900093480, 18.870, 413.0, 20.3224
17.910959960, 18.870, 470.0, 21.6795
17.921826440, 18.870, 511.0, 22.6053
17.932692920, 18.870, 482.0, 21.9545
17.943559400, 18.870, 437.0, 20.9045
17.954425880, 18.870, 478.0, 21.8632
17.965292360, 18.870, 447.0, 21.1424
17.976158840, 18.870, 450.0, 21.2132
17.987025320, 18.870, 417.0, 20.4206
17.997891800, 18.870, 479.0, 21.8861
18.008758280, 18.870, 458.0, 21.4009
18.019624760, 18.870, 517.0, 22.7376
18.030491240, 18.870, 482.0, 21.9545
18.041357720, 18.870, 435.0, 20.8567
18.052224200, 18.870, 437.0, 20.9045
18.063090680, 18.870, 503.0, 22.4277
18.073957160, 18.870, 427.0, 20.6640
18.084823640, 18.870, 462.0, 21.4942
18.095690120, 18.870, 472.0, 21.7256
18.106556600, 18.870, 479.0, 21.8861
18.117423080, 18.870, 505.0, 22.4722
18.128289560, 18.870, 506.0, 22.4944
18.139156040, 18.870, 466.0, 21.5870
18.150022520, 18.870, 481.0, 21.9317
18.160889000, 18.870, 451.0, 21.2368
18.171755480, 18.870, 506.0, 22.4944
18.182621960, 18.870, 479.0, 21.8861
18.193488440, 18.870, 541.0, 23.2594
18.204354920, 18.870, 470.0, 21.6795
18.215221400, 18.870, 514.0, 22.6716
18.226087880, 18.870, 481.0, 21.9317
18.236954360, 18.870, 489.0, 22.1133
18.247820840, 18.870, 511.0, 22.6053
18.258687320, 18.870, 536.0, 23.1517
18.269553800, 18.870, 501.0, 22.3830
18.280420280, 18.870, 526.0, 22.9347
18.291286760, 18.870, 533.0, 23.0868
18.302153240, 18.870, 480.0, 21.9089
18.313019720, 18.870, 519.0, 22.7816
18.323886200, 18.870, 502.0, 22.4054
18.334752680, 18.870, 561.0, 23.6854
18.345619160, 18.870, 545.0, 23.3452
18.356485640, 18.870, 562.0, 23.7065
18.367352120, 18.870, 601.0, 24.5153
18.378218600, 18.870, 611.0, 24.7184
18.389085080, 18.870, 584.0, 24.1661
18.399951560, 18.870, 637.0, 25.2389
18.410818040, 18.870, 623.0, 24.9600
18.421684520, 18.870, 644.0, 25.3772
18.432551000, 18.870, 692.0, 26.3059
18.443417480, 18.870, 694.0, 26.3439
18.454283960, 18.870, 729.0, 27.0000
18.465150440, 18.870, 744.0, 27.2764
18.476016920, 18.870, 724.0, 26.9072
18.486883400, 18.870, 848.0, 29.1204
18.497749880, 18.870, 788.0, 28.0713
18.508616360, 18.870, 877.0, 29.6142
18.519482840, 18.870, 892.0, 29.8664
18.530349320, 18.870, 893.0, 29.8831
18.541215800, 18.870, 912.0, 30.1993
18.552082280, 18.870, 944.0, 30.7246
18.562948760, 18.870, 990.0, 31.4643
18.573815240, 18.870, 1026.0, 32.0312
18.584681720, 18.870, 1062.0, 32.5883
18.595548200, 18.870, 1091.0, 33.0303
18.606414680, 18.870, 1117.0, 33.4215
18.617281160, 18.870, 1158.0, 34.0294
18.628147640, 18.870, 1203.0, 34.6843
18.639014120, 18.870, 1280.0, 35.7771
18.649880600, 18.870, 1291.0, 35.9305
18.660747080, 18.870, 1329.0, 36.4555
18.671613560, 18.870, 1415.0, 37.6165
18.682480040, 18.870, 1430.0, 37.8153
18.693346520, 18.870, 1458.0, 38.1838
18.704213000, 18.870, 1530.0, 39.1152
18.715079480, 18.870, 1569.0, 39.6106
18.725945960, 18.870, 1470.0, 38.3406
18.736812440, 18.870, 1457.0, 38.1707
18.747678920, 18.870, 1458.0, 38.1838
18.758545400, 18.870, 1461.0, 38.2230
18.769411880, 18.870, 1334.0, 36.5240
18.780278360, 18.870, 1240.0, 35.2136
18.791144840, 18.870, 1199.0, 34.6266
18.802011320, 18.870, 1086.0, 32.9545
18.812877800, 18.870, 994.0, 31.5278
18.823744280, 18.870, 864.0, 29.3939
18.834610760, 18.870, 785.0, 28.0179
18.845477240, 18.870, 696.0, 26.3818
18.856343720, 18.870, 671.0, 25.9037
18.867210200, 18.870, 607.0, 24.6374
18.878076680, 18.870, 581.0, 24.1039
18.888943160, 18.870, 561.0, 23.6854
18.899809640, 18.870, 529.0, 23.0000
18.910676120, 18.870, 551.0, 23.4734
18.921542600, 18.870, 527.0, 22.9565
18.932409080, 18.870, 519.0, 22.7816
18.943275560, 18.870, 549.0, 23.4307
18.954142040, 18.870, 558.0, 23.6220
18.965008520, 18.870, 494.0, 22.2261
18.975875000, 18.870, 483.0, 21.9773
18.986741480, 18.870, 540.0, 23.2379
18.997607960, 18.870, 530.0, 23.0217
19.008474440, 18.870, 486.0, 22.0454
19.019340920, 18.870, 489.0, 22.1133
19.030207400, 18.870, 538.0, 23.1948
19.041073880, 18.870, 545.0, 23.3452
19.051940360, 18.870, 510.0, 22.5832
19.062806840, 18.870, 541.0, 23.2594
19.073673320, 18.870, 524.0, 22.8910
19.084539800, 18.870, 514.0, 22.6716
19.095406280, 18.870, 493.0, 22.2036
19.106272760, 18.870, 531.0, 23.0434
19.117139240, 18.870, 559.0, 23.6432
19.128005720, 18.870, 562.0, 23.7065
19.138872200, 18.870, 545.0, 23.3452
19.149738680, 18.870, 549.0, 23.4307
19.160605160, 18.870, 533.0, 23.0868
19.171471640, 18.870, 535.0, 23.1301
19.182338120, 18.870, 516.0, 22.7156
19.193204600, 18.870, 564.0, 23.7487
19.204071080, 18.870, 575.0, 23.9792
19.214937560, 18.870, 576.0, 24.0000
19.225804040, 18.870, 533.0, 23.0868
19.236670520, 18.870, 521.0, 22.8254
19.247537000, 18.870, 560.0, 23.6643
19.258403480, 18.870, 603.0, 24.5561
19.269269960, 18.870, 562.0, 23.7065
19.280136440, 18.870, 620.0, 24.8998
19.291002920, 18.870, 580.0, 24.0832
19.301869400, 18.870, 571.0, 23.8956
19.312735880, 18.870, 573.0, 23.9374
19.323602360, 18.870, 557.0, 23.6008
19.334468840, 18.870, 558.0, 23.6220
19.345335320, 18.870, 595.0, 24.3926
19.356201800, 18.870, 586.0, 24.2074
19.367068280, 18.870, 616.0, 24.8193
19.377934760, 18.870, 603.0, 24.5561
19.388801240, 18.870, 637.0, 25.2389
19.399667720, 18.870, 564.0, 23.7487
19.410534200, 18.870, 580.0, 24.0832
19.421400680, 18.870, 665.0, 25.7876
19.432267160, 18.870, 687.0, 26.2107
19.443133640, 18.870, 577.0, 24.0208
19.454000120, 18.870, 646.0, 25.4165
19.464866600, 18.870, 660.0, 25.6905
19.475733080, 18.870, 704.0, 26.5330
19.486599560, 18.870, 703.0, 26.5141
19.497466040, 18.870, 737.0, 27.1477
19.508332520, 18.870, 676.0, 26.0000
19.519199000, 18.870, 721.0, 26.8514
19.530065480, 18.870, 717.0, 26.7769
19.540931960, 18.870, 743.0, 27.2580
19.551798440, 18.870, 731.0, 27.0370
19.562664920, 18.870, 765.0, 27.6586
19.573531400, 18.870, 748.0, 27.3496
19.584397880, 18.870, 777.0, 27.8747
19.595264360, 18.870, 696.0, 26.3818
19.606130840, 18.870, 755.0, 27.4773
19.616997320, 18.870, 720.0, 26.8328
19.627863800, 18.870, 697.0, 26.4008
19.638730280, 18.870, 723.0, 26.8887
19.649596760, 18.870, 668.0, 25.8457
19.660463240, 18.870, 629.0, 25.0799
19.671329720, 18.870, 639.0, 25.2784
19.682196200, 18.870, 582.0, 24.1247
19.693062680, 18.870, 569.0, 23.8537
19.703929160, 18.870, 525.0, 22.9129
19.714795640, 18.870, 570.0, 23.8747
19.725662120, 18.870, 543.0, 23.3024
19.736528600, 18.870, 543.0, 23.3024
19.747395080, 18.870, 519.0, 22.7816
19.758261560, 18.870, 519.0, 22.7816
19.769128040, 18.870, 487.0, 22.0681
19.779994520, 18.870, 546.0, 23.3666
19.790861000, 18.870, 492.0, 22.1811
19.801727480, 18.870, 456.0, 21.3542
19.812593960, 18.870, 512.0, 22.6274
19.823460440, 18.870, 512.0, 22.6274
19.834326920, 18.870, 522.0, 22.8473
19.845193400, 18.870, 494.0, 22.2261
19.856059880, 18.870, 510.0, 22.5832
19.866926360, 18.870, 483.0, 21.9773
19.877792840, 18.870, 533.0, 23.0868
19.888659320, 18.870, 451.0, 21.2368
19.899525800, 18.870, 491.0, 22.1585
19.910392280, 18.870, 498.0, 22.3159
19.921258760, 18.870, 509.0, 22.5610
19.932125240, 18.870, 520.0, 22.8035
19.942991720, 18.870, 498.0, 22.3159
19.953858200, 18.870, 488.0, 22.0907
19.964724680, 18.870, 499.0, 22.3383
19.975591160, 18.870, 476.0, 21.8174
19.986457640, 18.870, 522.0, 22.8473
19.997324120, 18.870, 522.0, 22.8473
20.008190600, 18.870, 474.0, 21.7715
20.019057080, 18.870, 548.0, 23.4094
20.029923560, 18.870, 514.0, 22.6716
20.040790040, 18.870, 470.0, 21.6795
20.051656520, 18.870, 502.0, 22.4054
20.062523000, 18.870, 500.0, 22.3607
20.073389480, 18.870, 482.0, 21.9545
20.084255960, 18.870, 495.0, 22.2486
20.095122440, 18.870, 503.0, 22.4277
20.105988920, 18.870, 498.0, 22.3159
20.116855400, 18.870, 503.0, 22.4277
20.127721880, 18.870, 517.0, 22.7376
20.138588360, 18.870, 506.0, 22.4944
20.149454840, 18.870, 537.0, 23.1733
20.160321320, 18.870, 510.0, 22.5832
20.171187800, 18.870, 501.0, 22.3830
20.182054280, 18.870, 523.0, 22.8692
20.192920760, 18.870, 506.0, 22.4944
20.203787240, 18.870, 537.0, 23.1733
20.214653720, 18.870, 484.0, 22.0000
20.225520200, 18.870, 469.0, 21.6564
20.236386680, 18.870, 553.0, 23.5160
20.247253160, 18.870, 530.0, 23.0217
20.258119640, 18.870, 554.0, 23.5372
20.268986120, 18.870, 526.0, 22.9347
20.279852600, 18.870, 563.0, 23.7276
20.290719080, 18.870, 540.0, 23.2379
20.301585560, 18.870, 571.0, 23.8956
20.312452040, 18.870, 555.0, 23.5584
20.323318520, 18.870, 588.0, 24.2487
20.334185000, 18.870, 566.0, 23.7908
20.345051480, 18.870, 562.0, 23.7065
20.355917960, 18.870, 540.0, 23.2379
20.366784440, 18.870, 582.0, 24.1247
20.377650920, 18.870, 579.0, 24.0624
20.388517400, 18.870, 556.0, 23.5797
20.399383880, 18.870, 577.0, 24.0208
20.410250360, 18.870, 581.0, 24.1039
20.421116840, 18.870, 580.0, 24.0832
20.431983320, 18.870, 611.0, 24.7184
20.442849800, 18.870, 587.0, 24.2281
20.453716280, 18.870, 607.0, 24.6374
20.464582760, 18.870, 617.0, 24.8395
20.475449240, 18.870, 571.0, 23.8956
20.486315720, 18.870, 548.0, 23.4094
20.497182200, 18.870, 530.0, 23.0217
20.508048680, 18.870, 523.0, 22.8692
20.518915160, 18.870, 600.0, 24.4949
20.529781640, 18.870, 580.0, 24.0832
20.540648120, 18.870, 570.0, 23.8747
20.551514600, 18.870, 536.0, 23.1517
20.562381080, 18.870, 590.0, 24.2899
20.573247560, 18.870, 560.0, 23.6643
20.584114040, 18.870, 542.0, 23.2809
20.594980520, 18.870, 554.0, 23.5372
20.605847000, 18.870, 578.0, 24.0416
20.616713480, 18.870, 564.0, 23.7487
20.627579960, 18.870, 541.0, 23.2594
20.638446440, 18.870, 513.0, 22.6495
20.649312920, 18.870, 552.0, 23.4947
20.660179400, 18.870, 592.0, 24.3311
20.671045880, 18.870, 576.0, 24.0000
20.681912360, 18.870, 610.0, 24.6982
20.692778840, 18.870, 560.0, 23.6643
20.703645320, 18.870, 599.0, 24.4745
20.714511800, 18.870, 556.0, 23.5797
20.725378280, 18.870, 564.0, 23.7487
20.736244760, 18.870, 586.0, 24.2074
20.747111240, 18.870, 572.0, 23.9165
20.757977720, 18.870, 571.0, 23.8956
20.768844200, 18.870, 563.0, 23.7276
20.779710680, 18.870, 570.0, 23.8747
20.790577160, 18.870, 509.0, 22.5610
20.801443640, 18.870, 529.0, 23.0000
20.812310120, 18.870, 548.0, 23.4094
20.823176600, 18.870, 567.0, 23.8118
20.834043080, 18.870, 542.0, 23.2809
20.844909560, 18.870, 502.0, 22.4054
20.855776040, 18.870, 499.0, 22.3383
20.866642520, 18.870, 498.0, 22.3159
20.877509000, 18.870, 558.0, 23.6220
20.888375480, 18.870, 500.0, 22.3607
20.899241960, 18.870, 528.0, 22.9783
20.910108440, 18.870, 481.0, 21.9317
20.920974920, 18.870, 496.0, 22.2711
20.931841400, 18.870, 518.0, 22.7596
20.942707880, 18.870, 528.0, 22.9783
20.953574360, 18.870, 529.0, 23.0000
20.964440840, 18.870, 517.0, 22.7376
20.975307320, 18.870, 506.0, 22.4944
20.986173800, 18.870, 508.0, 22.5389
20.997040280, 18.870, 544.0, 23.3238
21.007906760, 18.870, 509.0, 22.5610
21.018773240, 18.870, 523.0, 22.8692
21.029639720, 18.870, 511.0, 22.6053
21.040506200, 18.870, 561.0, 23.6854
21.051372680, 18.870, 523.0, 22.8692
21.062239160, 18.870, 579.0, 24.0624
21.073105640, 18.870, 529.0, 23.0000
21.083972120, 18.870, 560.0, 23.6643
21.094838600, 18.870, 535.0, 23.1301
21.105705080, 18.870, 544.0, 23.3238
21.116571560, 18.870, 603.0, 24.5561
21.127438040, 18.870, 551.0, 23.4734
21.138304520, 18.870, 570.0, 23.8747
21.149171000, 18.870, 570.0, 23.8747
21.160037480, 18.870, 599.0, 24.4745
21.170903960, 18.870, 618.0, 24.8596
21.181770440, 18.870, 556.0, 23.5797
21.192636920, 18.870, 621.0, 24.9199
21.203503400, 18.870, 564.0, 23.7487
21.214369880, 18.870, 594.0, 24.3721
21.225236360, 18.870, 637.0, 25.2389
21.236102840, 18.870, 584.0, 24.1661
21.246969320, 18.870, 597.0, 24.4336
21.257835800, 18.870, 592.0, 24.3311
21.268702280, 18.870, 633.0, 25.1595
21.279568760, 18.870, 612.0, 24.7386
21.290435240, 18.870, 652.0, 25.5343
21.301301720, 18.870, 630.0, 25.0998
21.312168200, 18.870, 630.0, 25.0998
21.323034680, 18.870, 730.0, 27.0185
21.333901160, 18.870, 653.0, 25.5539
21.344767640, 18.870, 715.0, 26.7395
21.355634120, 18.870, 697.0, 26.4008
21.366500600, 18.870, 745.0, 27.2947
21.377367080, 18.870, 732.0, 27.0555
21.388233560, 18.870, 745.0, 27.2947
21.399100040, 18.870, 794.0, 28.1780
21.409966520, 18.870, 851.0, 29.1719
21.420833000, 18.870, 869.0, 29.4788
21.431699480, 18.870, 919.0, 30.3150
21.442565960, 18.870, 973.0, 31.1929
21.453432440, 18.870, 1120.0, 33.4664
21.464298920, 18.870, 1139.0, 33.7491
21.475165400, 18.870, 1237.0, 35.1710
21.486031880, 18.870, 1175.0, 34.2783
21.496898360, 18.870, 1345.0, 36.6742
21.507764840, 18.870, 1354.0, 36.7967
21.518631320, 18.870, 1464.0, 38.2623
21.529497800, 18.870, 1521.0, 39.0000
21.540364280, 18.870, 1583.0, 39.7869
21.551230760, 18.870, 1635.0, 40.4351
21.562097240, 18.870, 1713.0, 41.3884
21.572963720, 18.870, 1919.0, 43.8064
21.583830200, 18.870, 1918.0, 43.7950
21.594696680, 18.870, 2131.0, 46.1628
21.605563160, 18.870, 2164.0, 46.5188
21.616429640, 18.870, 2206.0, 46.9681
21.627296120, 18.870, 2315.0, 48.1144
21.638162600, 18.870, 2385.0, 48.8365
21.649029080, 18.870, 2527.0, 50.2693
21.659895560, 18.870, 2579.0, 50.7839
21.670762040, 18.870, 2741.0, 52.3546
21.681628520, 18.870, 2907.0, 53.9166
21.692495000, 18.870, 3114.0, 55.8032
21.703361480, 18.870, 3275.0, 57.2276
21.714227960, 18.870, 3428.0, 58.5491
21.725094440, 18.870, 3500.0, 59.1608
21.735960920, 18.870, 3825.0, 61.8466
21.746827400, 18.870, 3972.0, 63.0238
21.757693880, 18.870, 4064.0, 63.7495
21.768560360, 18.870, 4361.0, 66.0379
21.779426840, 18.870, 4511.0, 67.1640
21.790293320, 18.870, 4669.0, 68.3301
21.801159800, 18.870, 4809.0, 69.3470
21.812026280, 18.870, 4932.0, 70.2282
21.822892760, 18.870, 4966.0, 70.4699
21.833759240, 18.870, 4838.0, 69.5557
21.844625720, 18.870, 4784.0, 69.1665
21.855492200, 18.870, 4716.0, 68.6731
21.866358680, 18.870, 4348.0, 65.9394
21.877225160, 18.870, 4179.0, 64.6452
21.888091640, 18.870, 3880.0, 62.2896
21.898958120, 18.870, 3477.0, 58.9661
21.909824600, 18.870, 3159.0, 56.2050
21.920691080, 18.870, 2758.0, 52.5167
21.931557560, 18.870, 2357.0, 48.5489
21.942424040, 18.870, 2153.0, 46.4004
21.953290520, 18.870, 2027.0, 45.0222
21.964157000, 18.870, 1897.0, 43.5546
21.975023480, 18.870, 1678.0, 40.9634
21.985889960, 18.870, 1571.0, 39.6358
21.996756440, 18.870, 1495.0, 38.6652
22.007622920, 18.870, 1565.0, 39.5601
22.018489400, 18.870, 1436.0, 37.8946
22.029355880, 18.870, 1576.0, 39.6989
22.040222360, 18.870, 1556.0, 39.4462
22.051088840, 18.870, 1598.0, 39.9750
22.061955320, 18.870, 1549.0, 39.3573
22.072821800, 18.870, 1587.0, 39.8372
22.083688280, 18.870, 1616.0, 40.1995
22.094554760, 18.870, 1503.0, 38.7685
22.105421240, 18.870, 1536.0, 39.1918
22.116287720, 18.870, 1548.0, 39.3446
22.127154200, 18.870, 1644.0, 40.5463
22.138020680, 18.870, 1559.0, 39.4842
22.148887160, 18.870, 1482.0, 38.4968
22.159753640, 18.870, 1452.0, 38.1051
22.170620120, 18.870, 1414.0, 37.6032
22.181486600, 18.870, 1496.0, 38.6782
22.192353080, 18.870, 1417.0, 37.6431
22.203219560, 18.870, 1364.0, 36.9324
22.214086040, 18.870, 1457.0, 38.1707
22.224952520, 18.870, 1445.0, 38.0132
22.235819000, 18.870, 1359.0, 36.8646
22.246685480, 18.870, 1349.0, 36.7287
22.257551960, 18.870, 1389.0, 37.2693
22.268418440, 18.870, 1330.0, 36.4692
22.279284920, 18.870, 1337.0, 36.5650
22.290151400, 18.870, 1326.0, 36.4143
22.301017880, 18.870, 1279.0, 35.7631
22.311884360, 18.870, 1290.0, 35.9166
22.322750840, 18.870, 1202.0, 34.6699
22.333617320, 18.870, 1149.0, 33.8969
22.344483800, 18.870, 1047.0, 32.3574
22.355350280, 18.870, 965.0, 31.0644
22.366216760, 18.870, 873.0, 29.5466
22.377083240, 18.870, 853.0, 29.2062
22.387949720, 18.870, 798.0, 28.2489
22.398816200, 18.870, 773.0, 27.8029
22.409682680, 18.870, 743.0, 27.2580
22.420549160, 18.870, 752.0, 27.4226
22.431415640, 18.870, 682.0, 26.1151
22.442282120, 18.870, 651.0, 25.5147
22.453148600, 18.870, 679.0, 26.0576
22.464015080, 18.870, 673.0, 25.9422
22.474881560, 18.870, 607.0, 24.6374
22.485748040, 18.870, 603.0, 24.5561
22.496614520, 18.870, 648.0, 25.4558
22.507481000, 18.870, 640.0, 25.2982
22.518347480, 18.870, 646.0, 25.4165
22.529213960, 18.870, 618.0, 24.8596
22.540080440, 18.870, 559.0, 23.6432
22.550946920, 18.870, 639.0, 25.2784
22.561813400, 18.870, 603.0, 24.5561
22.572679880, 18.870, 571.0, 23.8956
22.583546360, 18.870, 604.0, 24.5764
22.594412840, 18.870, 608.0, 24.6577
22.605279320, 18.870, 676.0, 26.0000
22.616145800, 18.870, 573.0, 23.9374
22.627012280, 18.870, 643.0, 25.3574
22.637878760, 18.870, 654.0, 25.5734
22.648745240, 18.870, 650.0, 25.4951
22.659611720, 18.870, 639.0, 25.2784
22.670478200, 18.870, 624.0, 24.9800
22.681344680, 18.870, 660.0, 25.6905
22.692211160, 18.870, 689.0, 26.2488
22.703077640, 18.870, 653.0, 25.5539
22.713944120, 18.870, 701.0, 26.4764
22.724810600, 18.870, 705.0, 26.5518
22.735677080, 18.870, 719.0, 26.8142
22.746543560, 18.870, 732.0, 27.0555
22.757410040, 18.870, 756.0, 27.4955
22.768276520, 18.870, 716.0, 26.7582
22.779143000, 18.870, 749.0, 27.3679
22.790009480, 18.870, 783.0, 27.9821
22.800875960, 18.870, 749.0, 27.3679
22.811742440, 18.870, 812.0, 28.4956
22.822608920, 18.870, 828.0, 28.7750
22.833475400, 18.870, 807.0, 28.4077
22.844341880, 18.870, 865.0, 29.4109
22.855208360, 18.870, 861.0, 29.3428
22.866074840, 18.870, 843.0, 29.0345
22.876941320, 18.870, 871.0, 29.5127
22.887807800, 18.870, 926.0, 30.4302
22.898674280, 18.870, 928.0, 30.4631
22.909540760, 18.870, 955.0, 30.9031
22.920407240, 18.870, 1017.0, 31.8904
22.931273720, 18.870, 977.0, 31.2570
22.942140200, 18.870, 1013.0, 31.8277
22.953006680, 18.870, 1094.0, 33.0757
22.963873160, 18.870, 1023.0, 31.9844
22.974739640, 18.870, 1050.0, 32.4037
22.985606120, 18.870, 1105.0, 33.2415
22.996472600, 18.870, 1044.0, 32.3110
23.007339080, 18.870, 1057.0, 32.5115
23.018205560, 18.870, 1048.0, 32.3728
23.029072040, 18.870, 1016.0, 31.8748
23.039938520, 18.870, 1024.0, 32.0000
23.050805000, 18.870, 965.0, 31.0644
23.061671480, 18.870, 916.0, 30.2655
23.072537960, 18.870, 914.0, 30.2324
23.083404440, 18.870, 820.0, 28.6356
23.094270920, 18.870, 802.0, 28.3196
23.105137400, 18.870, 671.0, 25.9037
23.116003880, 18.870, 750.0, 27.3861
23.126870360, 18.870, 671.0, 25.9037
23.137736840, 18.870, 637.0, 25.2389
23.148603320, 18.870, 601.0, 24.5153
23.159469800, 18.870, 601.0, 24.5153
23.170336280, 18.870, 559.0, 23.6432
23.181202760, 18.870, 572.0, 23.9165
23.192069240, 18.870, 538.0, 23.1948
23.202935720, 18.870, 564.0, 23.7487
23.213802200, 18.870, 598.0, 24.4540
23.224668680, 18.870, 597.0, 24.4336
23.235535160, 18.870, 584.0, 24.1661
23.246401640, 18.870, 611.0, 24.7184
23.257268120, 18.870, 659.0, 25.6710
23.268134600, 18.870, 613.0, 24.7588
23.279001080, 18.870, 623.0, 24.9600
23.289867560, 18.870, 677.0, 26.0192
23.300734040, 18.870, 665.0, 25.7876
23.311600520, 18.870, 670.0, 25.8844
23.322467000, 18.870, 696.0, 26.3818
23.333333480, 18.870, 704.0, 26.5330
23.344199960, 18.870, 712.0, 26.6833
23.355066440, 18.870, 727.0, 26.9629
23.365932920, 18.870, 785.0, 28.0179
23.376799400, 18.870, 791.0, 28.1247
23.387665880, 18.870, 805.0, 28.3725
23.398532360, 18.870, 861.0, 29.3428
23.409398840, 18.870, 835.0, 28.8964
23.420265320, 18.870, 882.0, 29.6985
23.431131800, 18.870, 901.0, 30.0167
23.441998280, 18.870, 937.0, 30.6105
23.452864760, 18.870, 910.0, 30.1662
23.463731240, 18.870, 1022.0, 31.9687
23.474597720, 18.870, 1044.0, 32.3110
23.485464200, 18.870, 1063.0, 32.6037
23.496330680, 18.870, 1062.0, 32.5883
23.507197160, 18.870, 1135.0, 33.6898
23.518063640, 18.870, 1135.0, 33.6898
23.528930120, 18.870, 1213.0, 34.8281
23.539796600, 18.870, 1271.0, 35.6511
23.550663080, 18.870, 1218.0, 34.8999
23.561529560, 18.870, 1318.0, 36.3043
23.572396040, 18.870, 1329.0, 36.4555
23.583262520, 18.870, 1447.0, 38.0395
23.594129000, 18.870, 1523.0, 39.0256
23.604995480, 18.870, 1525.0, 39.0512
23.615861960, 18.870, 1592.0, 39.8999
23.626728440, 18.870, 1619.0, 40.2368
23.637594920, 18.870, 1677.0, 40.9512
23.648461400, 18.870, 1651.0, 40.6325
23.659327880, 18.870, 1725.0, 41.5331
23.670194360, 18.870, 1676.0, 40.9390
23.681060840, 18.870, 1724.0, 41.5211
23.691927320, 18.870, 1700.0, 41.2311
23.702793800, 18.870, 1693.0, 41.1461
23.713660280, 18.870, 1658.0, 40.7185
23.724526760, 18.870, 1556.0, 39.4462
23.735393240, 18.870, 1513.0, 38.8973
23.746259720, 18.870, 1488.0, 38.5746
23.757126200, 18.870, 1356.0, 36.8239
23.767992680, 18.870, 1318.0, 36.3043
23.778859160, 18.870, 1289.0, 35.9026
23.789725640, 18.870, 1208.0, 34.7563
23.800592120, 18.870, 1217.0, 34.8855
23.811458600, 18.870, 1220.0, 34.9285
23.822325080, 18.870, 1165.0, 34.1321
23.833191560, 18.870, 1167.0, 34.1614
23.844058040, 18.870, 1117.0, 33.4215
23.854924520, 18.870, 1269.0, 35.6230
23.865791000, 18.870, 1229.0, 35.0571
23.876657480, 18.870, 1306.0, 36.1386
23.887523960, 18.870, 1389.0, 37.2693
23.898390440, 18.870, 1377.0, 37.1080
23.909256920, 18.870, 1387.0, 37.2424
23.920123400, 18.870, 1460.0, 38.2099
23.930989880, 18.870, 1524.0, 39.0384
23.941856360, 18.870, 1541.0, 39.2556
23.952722840, 18.870, 1601.0, 40.0125
23.963589320, 18.870, 1618.0, 40.2244
23.974455800, 18.870, 1632.0, 40.3980
23.985322280, 18.870, 1557.0, 39.4588
23.996188760, 18.870, 1655.0, 40.6817
24.007055240, 18.870, 1561.0, 39.5095
24.017921720, 18.870, 1505.0, 38.7943
24.028788200, 18.870, 1443.0, 37.9868
24.039654680, 18.870, 1346.0, 36.6879
24.050521160, 18.870, 1340.0, 36.6060
24.061387640, 18.870, 1236.0, 35.1568
24.072254120, 18.870, 1188.0, 34.4674
24.083120600, 18.870, 1110.0, 33.3167
24.093987080, 18.870, 993.0, 31.5119
24.104853560, 18.870, 1035.0, 32.1714
24.115720040, 18.870, 992.0, 31.4960
24.126586520, 18.870, 946.0, 30.7571
24.137453000, 18.870, 903.0, 30.0500
24.148319480, 18.870, 953.0, 30.8707
24.159185960, 18.870, 994.0, 31.5278
24.170052440, 18.870, 1081.0, 32.8786
24.180918920, 18.870, 984.0, 31.3688
24.191785400, 18.870, 977.0, 31.2570
24.202651880, 18.870, 957.0, 30.9354
24.213518360, 18.870, 1014.0, 31.8434
24.224384840, 18.870, 956.0, 30.9192
24.235251320, 18.870, 1052.0, 32.4345
24.246117800, 18.870, 990.0, 31.4643
24.256984280, 18.870, 946.0, 30.7571
24.267850760, 18.870, 972.0, 31.1769
24.278717240, 18.870, 964.0, 31.0483
24.289583720, 18.870, 936.0, 30.5941
24.300450200, 18.870, 857.0, 29.2746
24.311316680, 18.870, 824.0, 28.7054
24.322183160, 18.870, 797.0, 28.2312
24.333049640, 18.870, 760.0, 27.5681
24.343916120, 18.870, 726.0, 26.9444
24.354782600, 18.870, 717.0, 26.7769
24.365649080, 18.870, 610.0, 24.6982
24.376515560, 18.870, 570.0, 23.8747
24.387382040, 18.870, 588.0, 24.2487
24.398248520, 18.870, 565.0, 23.7697
24.409115000, 18.870, 544.0, 23.3238
24.419981480, 18.870, 546.0, 23.3666
24.430847960, 18.870, 501.0, 22.3830
24.441714440, 18.870, 497.0, 22.2935
24.452580920, 18.870, 477.0, 21.8403
24.463447400, 18.870, 521.0, 22.8254
24.474313880, 18.870, 517.0, 22.7376
24.485180360, 18.870, 488.0, 22.0907
24.496046840, 18.870, 523.0, 22.8692
24.506913320, 18.870, 452.0, 21.2603
24.517779800, 18.870, 489.0, 22.1133
24.528646280, 18.870, 514.0, 22.6716
24.539512760, 18.870, 519.0, 22.7816
24.550379240, 18.870, 491.0, 22.1585
24.561245720, 18.870, 527.0, 22.9565
24.572112200, 18.870, 501.0, 22.3830
24.582978680, 18.870, 514.0, 22.6716
24.593845160, 18.870, 569.0, 23.8537
24.604711640, 18.870, 521.0, 22.8254
24.615578120, 18.870, 561.0, 23.6854
24.626444600, 18.870, 511.0, 22.6053
24.637311080, 18.870, 565.0, 23.7697
24.648177560, 18.870, 520.0, 22.8035
24.659044040, 18.870, 528.0, 22.9783
24.669910520, 18.870, 526.0, 22.9347
24.680777000, 18.870, 518.0, 22.7596
24.691643480, 18.870, 535.0, 23.1301
24.702509960, 18.870, 507.0, 22.5167
24.713376440, 18.870, 515.0, 22.6936
24.724242920, 18.870, 527.0, 22.9565
24.735109400, 18.870, 516.0, 22.7156
24.745975880, 18.870, 523.0, 22.8692
24.756842360, 18.870, 486.0, 22.0454
24.767708840, 18.870, 518.0, 22.7596
24.778575320, 18.870, 523.0, 22.8692
24.789441800, 18.870, 522.0, 22.8473
24.800308280, 18.870, 517.0, 22.7376
24.811174760, 18.870, 493.0, 22.2036
24.822041240, 18.870, 501.0, 22.3830
24.832907720, 18.870, 496.0, 22.2711
24.843774200, 18.870, 542.0, 23.2809
24.854640680, 18.870, 487.0, 22.0681
24.865507160, 18.870, 565.0, 23.7697
24.876373640, 18.870, 495.0, 22.2486
24.887240120, 18.870, 567.0, 23.8118
24.898106600, 18.870, 580.0, 24.0832
24.908973080, 18.870, 581.0, 24.1039
24.919839560, 18.870, 607.0, 24.6374
24.930706040, 18.870, 624.0, 24.9800
24.941572520, 18.870, 632.0, 25.1396
24.952439000, 18.870, 654.0, 25.5734
24.963305480, 18.870, 642.0, 25.3377
24.974171960, 18.870, 689.0, 26.2488
24.985038440, 18.870, 703.0, 26.5141
24.995904920, 18.870, 701.0, 26.4764
25.006771400, 18.870, 721.0, 26.8514
25.017637880, 18.870, 781.0, 27.9464
25.028504360, 18.870, 784.0, 28.0000
25.039370840, 18.870, 806.0, 28.3901
25.050237320, 18.870, 834.0, 28.8791
25.061103800, 18.870, 932.0, 30.5287
25.071970280, 18.870, 937.0, 30.6105
25.082836760, 18.870, 1007.0, 31.7333
25.093703240, 18.870, 912.0, 30.1993
25.104569720, 18.870, 980.0, 31.3050
25.115436200, 18.870, 1051.0, 32.4191
25.126302680, 18.870, 1120.0, 33.4664
25.137169160, 18.870, 1098.0, 33.1361
25.148035640, 18.870, 1162.0, 34.0881
25.158902120, 18.870, 1175.0, 34.2783
25.169768600, 18.870, 1198.0, 34.6121
25.180635080, 18.870, 1253.0, 35.3977
25.191501560, 18.870, 1343.0, 36.6470
25.202368040, 18.870, 1309.0, 36.1801
25.213234520, 18.870, 1314.0, 36.2491
25.224101000, 18.870, 1317.0, 36.2905
25.234967480, 18.870, 1377.0, 37.1080
25.245833960, 18.870, 1393.0, 37.3229
25.256700440, 18.870, 1374.0, 37.0675
25.267566920, 18.870, 1393.0, 37.3229
25.278433400, 18.870, 1485.0, 38.5357
25.289299880, 18.870, 1438.0, 37.9210
25.300166360, 18.870, 1531.0, 39.1280
25.311032840, 18.870, 1483.0, 38.5097
25.321899320, 18.870, 1485.0, 38.5357
25.332765800, 18.870, 1536.0, 39.1918
25.343632280, 18.870, 1530.0, 39.1152
25.354498760, 18.870, 1542.0, 39.2683
25.365365240, 18.870, 1476.0, 38.4187
25.376231720, 18.870, 1453.0, 38.1182
25.387098200, 18.870, 1555.0, 39.4335
25.397964680, 18.870, 1536.0, 39.1918
25.408831160, 18.870, 1484.0, 38.5227
25.419697640, 18.870, 1433.0, 37.8550
25.430564120, 18.870, 1408.0, 37.5233
25.441430600, 18.870, 1452.0, 38.1051
25.452297080, 18.870, 1328.0, 36.4417
25.463163560, 18.870, 1287.0, 35.8748
25.474030040, 18.870, 1263.0, 35.5387
25.484896520, 18.870, 1164.0, 34.1174
25.495763000, 18.870, 1094.0, 33.0757
25.506629480, 18.870, 1052.0, 32.4345
25.517495960, 18.870, 1002.0, 31.6544
25.528362440, 18.870, 1013.0, 31.8277
25.539228920, 18.870, 934.0, 30.5614
25.550095400, 18.870, 902.0, 30.0333
25.560961880, 18.870, 900.0, 30.0000
25.571828360, 18.870, 902.0, 30.0333
25.582694840, 18.870, 804.0, 28.3549
25.593561320, 18.870, 831.0, 28.8271
25.604427800, 18.870, 797.0, 28.2312
25.615294280, 18.870, 742.0, 27.2397
25.626160760, 18.870, 750.0, 27.3861
25.637027240, 18.870, 729.0, 27.0000
25.647893720, 18.870, 662.0, 25.7294
25.658760200, 18.870, 608.0, 24.6577
25.669626680, 18.870, 609.0, 24.6779
25.680493160, 18.870, 629.0, 25.0799
25.691359640, 18.870, 607.0, 24.6374
25.702226120, 18.870, 593.0, 24.3516
25.713092600, 18.870, 613.0, 24.7588
25.723959080, 18.870, 583.0, 24.1454
25.734825560, 18.870, 546.0, 23.3666
25.745692040, 18.870, 561.0, 23.6854
25.756558520, 18.870, 544.0, 23.3238
25.767425000, 18.870, 540.0, 23.2379
25.778291480, 18.870, 592.0, 24.3311
25.789157960, 18.870, 562.0, 23.7065
25.800024440, 18.870, 539.0, 23.2164
25.810890920, 18.870, 571.0, 23.8956
25.821757400, 18.870, 576.0, 24.0000
25.832623880, 18.870, 588.0, 24.2487
25.843490360, 18.870, 587.0, 24.2281
25.854356840, 18.870, 613.0, 24.7588
25.865223320, 18.870, 617.0, 24.8395
25.876089800, 18.870, 622.0, 24.9399
25.886956280, 18.870, 672.0, 25.9230
25.897822760, 18.870, 620.0, 24.8998
25.908689240, 18.870, 657.0, 25.6320
25.919555720, 18.870, 692.0, 26.3059
25.930422200, 18.870, 713.0, 26.7021
25.941288680, 18.870, 671.0, 25.9037
25.952155160, 18.870, 691.0, 26.2869
25.963021640, 18.870, 625.0, 25.0000
25.973888120, 18.870, 713.0, 26.7021
25.984754600, 18.870, 754.0, 27.4591
25.995621080, 18.870, 789.0, 28.0891
26.006487560, 18.870, 759.0, 27.5500
26.017354040, 18.870, 753.0, 27.4408
26.028220520, 18.870, 743.0, 27.2580
26.039087000, 18.870, 706.0, 26.5707
26.049953480, 18.870, 730.0, 27.0185
26.060819960, 18.870, 746.0, 27.3130
26.071686440, 18.870, 712.0, 26.6833
26.082552920, 18.870, 694.0, 26.3439
26.093419400, 18.870, 725.0, 26.9258
26.104285880, 18.870, 738.0, 27.1662
26.115152360, 18.870, 725.0, 26.9258
26.126018840, 18.870, 730.0, 27.0185
26.136885320, 18.870, 761.0, 27.5862
26.147751800, 18.870, 812.0, 28.4956
26.158618280, 18.870, 800.0, 28.2843
26.169484760, 18.870, 798.0, 28.2489
26.180351240, 18.870, 803.0, 28.3373
26.191217720, 18.870, 825.0, 28.7228
26.202084200, 18.870, 893.0, 29.8831
26.212950680, 18.870, 907.0, 30.1164
26.223817160, 18.870, 875.0, 29.5804
26.234683640, 18.870, 920.0, 30.3315
26.245550120, 18.870, 954.0, 30.8869
26.256416600, 18.870, 983.0, 31.3528
26.267283080, 18.870, 984.0, 31.3688
26.278149560, 18.870, 996.0, 31.5595
26.289016040, 18.870, 992.0, 31.4960
26.299882520, 18.870, 1026.0, 32.0312
26.310749000, 18.870, 1073.0, 32.7567
26.321615480, 18.870, 1084.0, 32.9242
26.332481960, 18.870, 1133.0, 33.6601
26.343348440, 18.870, 1135.0, 33.6898
26.354214920, 18.870, 1150.0, 33.9116
26.365081400, 18.870, 1233.0, 35.1141
26.375947880, 18.870, 1197.0, 34.5977
26.386814360, 18.870, 1250.0, 35.3553
26.397680840, 18.870, 1276.0, 35.7211
26.408547320, 18.870, 1338.0, 36.5787
26.419413800, 18.870, 1336.0, 36.5513
26.430280280, 18.870, 1397.0, 37.3765
26.441146760, 18.870, 1457.0, 38.1707
26.452013240, 18.870, 1583.0, 39.7869
26.462879720, 18.870, 1606.0, 40.0749
26.473746200, 18.870, 1739.0, 41.7013
26.484612680, 18.870, 1788.0, 42.2847
26.495479160, 18.870, 1911.0, 43.7150
26.506345640, 18.870, 1942.0, 44.0681
26.517212120, 18.870, 1988.0, 44.5870
26.528078600, 18.870, 2089.0, 45.7056
26.538945080, 18.870, 2137.0, 46.2277
26.549811560, 18.870, 2183.0, 46.7226
26.560678040, 18.870, 2233.0, 47.2546
26.571544520, 18.870, 2282.0, 47.7703
26.582411000, 18.870, 2191.0, 46.8081
26.593277480, 18.870, 2226.0, 47.1805
26.604143960, 18.870, 2085.0, 45.6618
26.615010440, 18.870, 2037.0, 45.1331
26.625876920, 18.870, 2018.0, 44.9222
26.636743400, 18.870, 1921.0, 43.8292
26.647609880, 18.870, 1712.0, 41.3763
26.658476360, 18.870, 1728.0, 41.5692
26.669342840, 18.870, 1482.0, 38.4968
26.680209320, 18.870, 1363.0, 36.9188
26.691075800, 18.870, 1240.0, 35.2136
26.701942280, 18.870, 1057.0, 32.5115
26.712808760, 18.870, 926.0, 30.4302
26.723675240, 18.870, 836.0, 28.9137
26.734541720, 18.870, 771.0, 27.7669
26.745408200, 18.870, 669.0, 25.8650
26.756274680, 18.870, 618.0, 24.8596
26.767141160, 18.870, 620.0, 24.8998
26.778007640, 18.870, 542.0, 23.2809
26.788874120, 18.870, 517.0, 22.7376
26.799740600, 18.870, 541.0, 23.2594
26.810607080, 18.870, 511.0, 22.6053
26.821473560, 18.870, 508.0, 22.5389
26.832340040, 18.870, 469.0, 21.6564
26.843206520, 18.870, 500.0, 22.3607
26.854073000, 18.870, 465.0, 21.5639
26.864939480, 18.870, 452.0, 21.2603
26.875805960, 18.870, 460.0, 21.4476
26.886672440, 18.870, 429.0, 20.7123
26.897538920, 18.870, 429.0, 20.7123
26.908405400, 18.870, 476.0, 21.8174
26.919271880, 18.870, 425.0, 20.6155
26.930138360, 18.870, 369.0, 19.2094
26.941004840, 18.870, 442.0, 21.0238
26.951871320, 18.870, 423.0, 20.5670
26.962737800, 18.870, 422.0, 20.5426
26.973604280, 18.870, 436.0, 20.8806
26.984470760, 18.870, 406.0, 20.1494
26.995337240, 18.870, 451.0, 21.2368
27.006203720, 18.870, 438.0, 20.9284
27.017070200, 18.870, 452.0, 21.2603
27.027936680, 18.870, 406.0, 20.1494
27.038803160, 18.870, 432.0, 20.7846
27.049669640, 18.870, 422.0, 20.5426
27.060536120, 18.870, 444.0, 21.0713
27.071402600, 18.870, 418.0, 20.4450
27.082269080, 18.870, 410.0, 20.2485
27.093135560, 18.870, 397.0, 19.9249
27.104002040, 18.870, 414.0, 20.3470
27.114868520, 18.870, 391.0, 19.7737
27.125735000, 18.870, 429.0, 20.7123
27.136601480, 18.870, 464.0, 21.5407
27.147467960, 18.870, 391.0, 19.7737
27.158334440, 18.870, 409.0, 20.2237
27.169200920, 18.870, 402.0, 20.0499
27.180067400, 18.870, 445.0, 21.0950
27.190933880, 18.870, 450.0, 21.2132
27.201800360, 18.870, 418.0, 20.4450
27.212666840, 18.870, 424.0, 20.5913
27.223533320, 18.870, 472.0, 21.7256
27.234399800, 18.870, 449.0, 21.1896
27.245266280, 18.870, 424.0, 20.5913
27.256132760, 18.870, 459.0, 21.4243
27.266999240, 18.870, 461.0, 21.4709
27.277865720, 18.870, 422.0, 20.5426
27.288732200, 18.870, 456.0, 21.3542
27.299598680, 18.870, 481.0, 21.9317
27.310465160, 18.870, 440.0, 20.9762
27.321331640, 18.870, 481.0, 21.9317
27.332198120, 18.870, 470.0, 21.6795
27.343064600, 18.870, 446.0, 21.1187
27.353931080, 18.870, 477.0, 21.8403
27.364797560, 18.870, 463.0, 21.5174
27.375664040, 18.870, 474.0, 21.7715
27.386530520, 18.870, 472.0, 21.7256
27.397397000, 18.870, 465.0, 21.5639
27.408263480, 18.870, 507.0, 22.5167
27.419129960, 18.870, 465.0, 21.5639
27.429996440, 18.870, 493.0, 22.2036
27.440862920, 18.870, 467.0, 21.6102
27.451729400, 18.870, 522.0, 22.8473
27.462595880, 18.870, 504.0, 22.4499
27.473462360, 18.870, 471.0, 21.7025
27.484328840, 18.870, 509.0, 22.5610
27.495195320, 18.870, 470.0, 21.6795
27.506061800, 18.870, 495.0, 22.2486
27.516928280, 18.870, 549.0, 23.4307
27.527794760, 18.870, 560.0, 23.6643
27.538661240, 18.870, 555.0, 23.5584
27.549527720, 18.870, 594.0, 24.3721
27.560394200, 18.870, 600.0, 24.4949
27.571260680, 18.870, 576.0, 24.0000
27.582127160, 18.870, 591.0, 24.3105
27.592993640, 18.870, 616.0, 24.8193
27.603860120, 18.870, 586.0, 24.2074
27.614726600, 18.870, 614.0, 24.7790
27.625593080, 18.870, 611.0, 24.7184
27.636459560, 18.870, 639.0, 25.2784
27.647326040, 18.870, 608.0, 24.6577
27.658192520, 18.870, 641.0, 25.3180
27.669059000, 18.870, 654.0, 25.5734
27.679925480, 18.870, 677.0, 26.0192
27.690791960, 18.870, 632.0, 25.1396
27.701658440, 18.870, 642.0, 25.3377
27.712524920, 18.870, 659.0, 25.6710
27.723391400, 18.870, 661.0, 25.7099
27.734257880, 18.870, 664.0, 25.7682
27.745124360, 18.870, 673.0, 25.9422
27.755990840, 18.870, 630.0, 25.0998
27.766857320, 18.870, 625.0, 25.0000
27.777723800, 18.870, 607.0, 24.6374
27.788590280, 18.870, 655.0, 25.5930
27.799456760, 18.870, 623.0, 24.9600
27.810323240, 18.870, 687.0, 26.2107
27.821189720, 18.870, 597.0, 24.4336
27.832056200, 18.870, 600.0, 24.4949
27.842922680, 18.870, 628.0, 25.0599
27.853789160, 18.870, 680.0, 26.0768
27.864655640, 18.870, 649.0, 25.4755
27.875522120, 18.870, 682.0, 26.1151
27.886388600, 18.870, 647.0, 25.4362
27.897255080, 18.870, 667.0, 25.8263
27.908121560, 18.870, 728.0, 26.9815
27.918988040, 18.870, 700.0, 26.4575
27.929854520, 18.870, 735.0, 27.1109
27.940721000, 18.870, 795.0, 28.1957
27.951587480, 18.870, 801.0, 28.3019
27.962453960, 18.870, 804.0, 28.3549
27.973320440, 18.870, 756.0, 27.4955
27.984186920, 18.870, 833.0, 28.8617
27.995053400, 18.870, 828.0, 28.7750
28.005919880, 18.870, 981.0, 31.3209
28.016786360, 18.870, 938.0, 30.6268
28.027652840, 18.870, 956.0, 30.9192
28.038519320, 18.870, 1066.0, 32.6497
28.049385800, 18.870, 1033.0, 32.1403
28.060252280, 18.870, 1121.0, 33.4813
28.071118760, 18.870, 1098.0, 33.1361
28.081985240, 18.870, 1157.0, 34.0147
28.092851720, 18.870, 1176.0, 34.2929
28.103718200, 18.870, 1228.0, 35.0428
28.114584680, 18.870, 1341.0, 36.6197
28.125451160, 18.870, 1240.0, 35.2136
28.136317640, 18.870, 1295.0, 35.9861
28.147184120, 18.870, 1311.0, 36.2077
28.158050600, 18.870, 1359.0, 36.8646
28.168917080, 18.870, 1435.0, 37.8814
28.179783560, 18.870, 1340.0, 36.6060
28.190650040, 18.870, 1301.0, 36.0694
28.201516520, 18.870, 1338.0, 36.5787
28.212383000, 18.870, 1245.0, 35.2846
28.223249480, 18.870, 1210.0, 34.7851
28.234115960, 18.870, 1182.0, 34.3802
28.244982440, 18.870, 1090.0, 33.0151
28.255848920, 18.870, 1024.0, 32.0000
28.266715400, 18.870, 995.0, 31.5436
28.277581880, 18.870, 950.0, 30.8221
28.288448360, 18.870, 968.0, 31.1127
28.299314840, 18.870, 852.0, 29.1890
28.310181320, 18.870, 835.0, 28.8964
28.321047800, 18.870, 817.0, 28.5832
28.331914280, 18.870, 793.0, 28.1603
28.342780760, 18.870, 721.0, 26.8514
28.353647240, 18.870, 702.0, 26.4953
28.364513720, 18.870, 688.0, 26.2298
28.375380200, 18.870, 649.0, 25.4755
28.386246680, 18.870, 693.0, 26.3249
28.397113160, 18.870, 613.0, 24.7588
28.407979640, 18.870, 574.0, 23.9583
28.418846120, 18.870, 543.0, 23.3024
28.429712600, 18.870, 504.0, 22.4499
28.440579080, 18.870, 517.0, 22.7376
28.451445560, 18.870, 514.0, 22.6716
28.462312040, 18.870, 514.0, 22.6716
28.473178520, 18.870, 462.0, 21.4942
28.484045000, 18.870, 505.0, 22.4722
28.494911480, 18.870, 457.0, 21.3776
28.505777960, 18.870, 482.0, 21.9545
28.516644440, 18.870, 446.0, 21.1187
28.527510920, 18.870, 450.0, 21.2132
28.538377400, 18.870, 487.0, 22.0681
28.549243880, 18.870, 439.0, 20.9523
28.560110360, 18.870, 508.0, 22.5389
28.570976840, 18.870, 483.0, 21.9773
28.581843320, 18.870, 492.0, 22.1811
28.592709800, 18.870, 468.0, 21.6333
28.603576280, 18.870, 433.0, 20.8087
28.614442760, 18.870, 438.0, 20.9284
28.625309240, 18.870, 458.0, 21.4009
28.636175720, 18.870, 452.0, 21.2603
28.647042200, 18.870, 530.0, 23.0217
28.657908680, 18.870, 501.0, 22.3830
28.668775160, 18.870, 506.0, 22.4944
28.679641640, 18.870, 476.0, 21.8174
28.690508120, 18.870, 487.0, 22.0681
28.701374600, 18.870, 498.0, 22.3159
28.712241080, 18.870, 482.0, 21.9545
28.723107560, 18.870, 476.0, 21.8174
28.733974040, 18.870, 467.0, 21.6102
28.744840520, 18.870, 548.0, 23.4094
28.755707000, 18.870, 461.0, 21.4709
28.766573480, 18.870, 439.0, 20.9523
28.777439960, 18.870, 459.0, 21.4243
28.788306440, 18.870, 478.0, 21.8632
28.799172920, 18.870, 461.0, 21.4709
28.810039400, 18.870, 455.0, 21.3307
28.820905880, 18.870, 494.0, 22.2261
28.831772360, 18.870, 457.0, 21.3776
28.842638840, 18.870, 468.0, 21.6333
28.853505320, 18.870, 393.0, 19.8242
28.864371800, 18.870, 427.0, 20.6640
28.875238280, 18.870, 402.0, 20.0499
28.886104760, 18.870, 379.0, 19.4679
28.896971240, 18.870, 373.0, 19.3132
28.907837720, 18.870, 367.0, 19.1572
28.918704200, 18.870, 360.0, 18.9737
28.929570680, 18.870, 388.0, 19.6977
28.940437160, 18.870, 382.0, 19.5448
28.951303640, 18.870, 421.0, 20.5183
28.962170120, 18.870, 418.0, 20.4450
28.973036600, 18.870, 356.0, 18.8680
28.983903080, 18.870, 401.0, 20.0250
28.994769560, 18.870, 421.0, 20.5183
29.005636040, 18.870, 385.0, 19.6214
29.016502520, 18.870, 397.0, 19.9249
29.027369000, 18.870, 385.0, 19.6214
29.038235480, 18.870, 352.0, 18.7617
29.049101960, 18.870, 388.0, 19.6977
29.059968440, 18.870, 371.0, 19.2614
29.070834920, 18.870, 415.0, 20.3715
29.081701400, 18.870, 390.0, 19.7484
29.092567880, 18.870, 364.0, 19.0788
29.103434360, 18.870, 386.0, 19.6469
29.114300840, 18.870, 388.0, 19.6977
29.125167320, 18.870, 369.0, 19.2094
29.136033800, 18.870, 399.0, 19.9750
29.146900280, 18.870, 384.0, 19.5959
29.157766760, 18.870, 402.0, 20.0499
29.168633240, 18.870, 379.0, 19.4679
29.179499720, 18.870, 369.0, 19.2094
29.190366200, 18.870, 420.0, 20.4939
29.201232680, 18.870, 414.0, 20.3470
29.212099160, 18.870, 420.0, 20.4939
29.222965640, 18.870, 420.0, 20.4939
29.233832120, 18.870, 423.0, 20.5670
29.244698600, 18.870, 446.0, 21.1187
29.255565080, 18.870, 387.0, 19.6723
29.266431560, 18.870, 414.0, 20.3470
29.277298040, 18.870, 417.0, 20.4206
29.288164520, 18.870, 458.0, 21.4009
29.299031000, 18.870, 419.0, 20.4695
29.309897480, 18.870, 431.0, 20.7605
29.320763960, 18.870, 394.0, 19.8494
29.331630440, 18.870, 448.0, 21.1660
29.342496920, 18.870, 456.0, 21.3542
29.353363400, 18.870, 417.0, 20.4206
29.364229880, 18.870, 365.0, 19.1050
29.375096360, 18.870, 401.0, 20.0250
29.385962840, 18.870, 352.0, 18.7617
29.396829320, 18.870, 368.0, 19.1833
29.407695800, 18.870, 376.0, 19.3907
29.418562280, 18.870, 383.0, 19.5704
29.429428760, 18.870, 368.0, 19.1833
29.440295240, 18.870, 367.0, 19.1572
29.451161720, 18.870, 391.0, 19.7737
29.462028200, 18.870, 391.0, 19.7737
29.472894680, 18.870, 351.0, 18.7350
29.483761160, 18.870, 365.0, 19.1050
29.494627640, 18.870, 383.0, 19.5704
29.505494120, 18.870, 343.0, 18.5203
29.516360600, 18.870, 343.0, 18.5203
29.527227080, 18.870, 345.0, 18.5742
29.538093560, 18.870, 364.0, 19.0788
29.548960040, 18.870, 362.0, 19.0263
29.559826520, 18.870, 375.0, 19.3649
29.570693000, 18.870, 383.0, 19.5704
29.581559480, 18.870, 386.0, 19.6469
29.592425960, 18.870, 381.0, 19.5192
29.603292440, 18.870, 390.0, 19.7484
29.614158920, 18.870, 369.0, 19.2094
29.625025400, 18.870, 395.0, 19.8746
29.635891880, 18.870, 395.0, 19.8746
29.646758360, 18.870, 400.0, 20.0000
29.657624840, 18.870, 325.0, 18.0278
29.668491320, 18.870, 360.0, 18.9737
29.679357800, 18.870, 381.0, 19.5192
29.690224280, 18.870, 379.0, 19.4679
29.701090760, 18.870, 418.0, 20.4450
29.711957240, 18.870, 418.0, 20.4450
29.722823720, 18.870, 411.0, 20.2731
29.733690200, 18.870, 375.0, 19.3649
29.744556680, 18.870, 409.0, 20.2237
29.755423160, 18.870, 384.0, 19.5959
29.766289640, 18.870, 403.0, 20.0749
29.777156120, 18.870, 449.0, 21.1896
29.788022600, 18.870, 432.0, 20.7846
29.798889080, 18.870, 452.0, 21.2603
29.809755560, 18.870, 460.0, 21.4476
29.820622040, 18.870, 483.0, 21.9773
29.831488520, 18.870, 467.0, 21.6102
29.842355000, 18.870, 464.0, 21.5407
29.853221480, 18.870, 448.0, 21.1660
29.864087960, 18.870, 501.0, 22.3830
29.874954440, 18.870, 508.0, 22.5389
29.885820920, 18.870, 494.0, 22.2261
29.896687400, 18.870, 511.0, 22.6053
29.907553880, 18.870, 501.0, 22.3830
29.918420360, 18.870, 524.0, 22.8910
29.929286840, 18.870, 520.0, 22.8035
29.940153320, 18.870, 558.0, 23.6220
29.951019800, 18.870, 511.0, 22.6053
29.961886280, 18.870, 535.0, 23.1301
29.972752760, 18.870, 526.0, 22.9347
29.983619240, 18.870, 544.0, 23.3238
29.994485720, 18.870, 587.0, 24.2281
