[Measurement conditions]
Anode material,Cu
K-Alpha1 wavelength,1.5405980
K-Alpha2 wavelength,1.5444260
Ratio K-Alpha2/K-Alpha1,0.500
Divergence slit,Fixed,0.38mm
Monochromator used,NO
Generator voltage, 40
Tube current, 15
File date and time,17/Sep/2026 11:43
Unit cell,
h k l, 0 0 0
Scan axis,Gonio
Scan range,1.997000000,29.999918960
Scan step size,0.0108665
No. of points, 2577
Scan type,CONTINUOUS
Time per step,18.870
[Scan points]
Angle, TimePerStep, Intensity, ESD
2.002433240, 18.870, 59971.0, 244.8898
2.013299720, 18.870, 57179.0, 239.1213
2.024166200, 18.870, 54957.0, 234.4291
2.035032680, 18.870, 52786.0, 229.7520
2.045899160, 18.870, 50803.0, 225.3952
2.056765640, 18.870, 47976.0, 219.0342
2.067632120, 18.870, 45879.0, 214.1938
2.078498600, 18.870, 43008.0, 207.3837
2.089365080, 18.870, 40898.0, 202.2325
2.100231560, 18.870, 38632.0, 196.5502
2.111098040, 18.870, 36529.0, 191.1256
2.121964520, 18.870, 34210.0, 184.9595
2.132831000, 18.870, 31549.0, 177.6204
2.143697480, 18.870, 29483.0, 171.7061
2.154563960, 18.870, 27246.0, 165.0636
2.165430440, 18.870, 24866.0, 157.6896
2.176296920, 18.870, 22342.0, 149.4724
2.187163400, 18.870, 19995.0, 141.4037
2.198029880, 18.870, 17497.0, 132.2762
2.208896360, 18.870, 14876.0, 121.9672
2.219762840, 18.870, 12501.0, 111.8079
2.230629320, 18.870, 10226.0, 101.1237
2.241495800, 18.870, 7718.0, 87.8521
2.252362280, 18.870, 5719.0, 75.6241
2.263228760, 18.870, 4332.0, 65.8179
2.274095240, 18.870, 3392.0, 58.2409
2.284961720, 18.870, 2982.0, 54.6077
2.295828200, 18.870, 2773.0, 52.6593
2.306694680, 18.870, 2784.0, 52.7636
2.317561160, 18.870, 2654.0, 51.5170
2.328427640, 18.870, 2609.0, 51.0784
2.339294120, 18.870, 2617.0, 51.1566
2.350160600, 18.870, 2623.0, 51.2152
2.361027080, 18.870, 2570.0, 50.6952
2.371893560, 18.870, 2610.0, 51.0882
2.382760040, 18.870, 2519.0, 50.1896
2.393626520, 18.870, 2487.0, 49.8698
2.404493000, 18.870, 2554.0, 50.5371
2.415359480, 18.870, 2516.0, 50.1597
2.426225960, 18.870, 2460.0, 49.5984
2.437092440, 18.870, 2398.0, 48.9694
2.447958920, 18.870, 2476.0, 49.7594
2.458825400, 18.870, 2539.0, 50.3885
2.469691880, 18.870, 2362.0, 48.6004
2.480558360, 18.870, 2432.0, 49.3153
2.491424840, 18.870, 2478.0, 49.7795
2.502291320, 18.870, 2450.0, 49.4975
2.513157800, 18.870, 2455.0, 49.5480
2.524024280, 18.870, 2383.0, 48.8160
2.534890760, 18.870, 2377.0, 48.7545
2.545757240, 18.870, 2359.0, 48.5695
2.556623720, 18.870, 2436.0, 49.3559
2.567490200, 18.870, 2252.0, 47.4552
2.578356680, 18.870, 2323.0, 48.1975
2.589223160, 18.870, 2363.0, 48.6107
2.600089640, 18.870, 2356.0, 48.5386
2.610956120, 18.870, 2288.0, 47.8330
2.621822600, 18.870, 2285.0, 47.8017
2.632689080, 18.870, 2272.0, 47.6655
2.643555560, 18.870, 2329.0, 48.2597
2.654422040, 18.870, 2318.0, 48.1456
2.665288520, 18.870, 2290.0, 47.8539
2.676155000, 18.870, 2258.0, 47.5184
2.687021480, 18.870, 2215.0, 47.0638
2.697887960, 18.870, 2179.0, 46.6798
2.708754440, 18.870, 2199.0, 46.8935
2.719620920, 18.870, 2221.0, 47.1275
2.730487400, 18.870, 2122.0, 46.0652
2.741353880, 18.870, 2130.0, 46.1519
2.752220360, 18.870, 2128.0, 46.1303
2.763086840, 18.870, 2154.0, 46.4112
2.773953320, 18.870, 2165.0, 46.5296
2.784819800, 18.870, 2135.0, 46.2061
2.795686280, 18.870, 2068.0, 45.4753
2.806552760, 18.870, 2202.0, 46.9255
2.817419240, 18.870, 2088.0, 45.6946
2.828285720, 18.870, 2026.0, 45.0111
2.839152200, 18.870, 1970.0, 44.3847
2.850018680, 18.870, 2060.0, 45.3872
2.860885160, 18.870, 2101.0, 45.8367
2.871751640, 18.870, 2035.0, 45.1110
2.882618120, 18.870, 1970.0, 44.3847
2.893484600, 18.870, 2006.0, 44.7884
2.904351080, 18.870, 2029.0, 45.0444
2.915217560, 18.870, 1987.0, 44.5758
2.926084040, 18.870, 1969.0, 44.3734
2.936950520, 18.870, 2022.0, 44.9667
2.947817000, 18.870, 1985.0, 44.5533
2.958683480, 18.870, 1938.0, 44.0227
2.969549960, 18.870, 1948.0, 44.1362
2.980416440, 18.870, 1944.0, 44.0908
2.991282920, 18.870, 1930.0, 43.9318
3.002149400, 18.870, 1828.0, 42.7551
3.013015880, 18.870, 1884.0, 43.4051
3.023882360, 18.870, 1952.0, 44.1814
3.034748840, 18.870, 1826.0, 42.7317
3.045615320, 18.870, 1903.0, 43.6234
3.056481800, 18.870, 1878.0, 43.3359
3.067348280, 18.870, 1823.0, 42.6966
3.078214760, 18.870, 1931.0, 43.9431
3.089081240, 18.870, 1821.0, 42.6732
3.099947720, 18.870, 1800.0, 42.4264
3.110814200, 18.870, 1707.0, 41.3159
3.121680680, 18.870, 1746.0, 41.7852
3.132547160, 18.870, 1730.0, 41.5933
3.143413640, 18.870, 1672.0, 40.8901
3.154280120, 18.870, 1721.0, 41.4849
3.165146600, 18.870, 1799.0, 42.4146
3.176013080, 18.870, 1687.0, 41.0731
3.186879560, 18.870, 1772.0, 42.0951
3.197746040, 18.870, 1745.0, 41.7732
3.208612520, 18.870, 1704.0, 41.2795
3.219479000, 18.870, 1613.0, 40.1622
3.230345480, 18.870, 1784.0, 42.2374
3.241211960, 18.870, 1702.0, 41.2553
3.252078440, 18.870, 1751.0, 41.8450
3.262944920, 18.870, 1695.0, 41.1704
3.273811400, 18.870, 1630.0, 40.3733
3.284677880, 18.870, 1590.0, 39.8748
3.295544360, 18.870, 1613.0, 40.1622
3.306410840, 18.870, 1549.0, 39.3573
3.317277320, 18.870, 1665.0, 40.8044
3.328143800, 18.870, 1574.0, 39.6737
3.339010280, 18.870, 1593.0, 39.9124
3.349876760, 18.870, 1536.0, 39.1918
3.360743240, 18.870, 1640.0, 40.4969
3.371609720, 18.870, 1569.0, 39.6106
3.382476200, 18.870, 1578.0, 39.7240
3.393342680, 18.870, 1576.0, 39.6989
3.404209160, 18.870, 1610.0, 40.1248
3.415075640, 18.870, 1501.0, 38.7427
3.425942120, 18.870, 1550.0, 39.3700
3.436808600, 18.870, 1509.0, 38.8458
3.447675080, 18.870, 1527.0, 39.0768
3.458541560, 18.870, 1520.0, 38.9872
3.469408040, 18.870, 1471.0, 38.3536
3.480274520, 18.870, 1417.0, 37.6431
3.491141000, 18.870, 1432.0, 37.8418
3.502007480, 18.870, 1350.0, 36.7423
3.512873960, 18.870, 1508.0, 38.8330
3.523740440, 18.870, 1375.0, 37.0810
3.534606920, 18.870, 1450.0, 38.0789
3.545473400, 18.870, 1416.0, 37.6298
3.556339880, 18.870, 1466.0, 38.2884
3.567206360, 18.870, 1387.0, 37.2424
3.578072840, 18.870, 1389.0, 37.2693
3.588939320, 18.870, 1350.0, 36.7423
3.599805800, 18.870, 1353.0, 36.7831
3.610672280, 18.870, 1430.0, 37.8153
3.621538760, 18.870, 1366.0, 36.9594
3.632405240, 18.870, 1311.0, 36.2077
3.643271720, 18.870, 1241.0, 35.2278
3.654138200, 18.870, 1270.0, 35.6371
3.665004680, 18.870, 1240.0, 35.2136
3.675871160, 18.870, 1333.0, 36.5103
3.686737640, 18.870, 1280.0, 35.7771
3.697604120, 18.870, 1319.0, 36.3180
3.708470600, 18.870, 1292.0, 35.9444
3.719337080, 18.870, 1251.0, 35.3695
3.730203560, 18.870, 1244.0, 35.2704
3.741070040, 18.870, 1193.0, 34.5398
3.751936520, 18.870, 1231.0, 35.0856
3.762803000, 18.870, 1252.0, 35.3836
3.773669480, 18.870, 1168.0, 34.1760
3.784535960, 18.870, 1239.0, 35.1994
3.795402440, 18.870, 1213.0, 34.8281
3.806268920, 18.870, 1149.0, 33.8969
3.817135400, 18.870, 1086.0, 32.9545
3.828001880, 18.870, 1178.0, 34.3220
3.838868360, 18.870, 1116.0, 33.4066
3.849734840, 18.870, 1118.0, 33.4365
3.860601320, 18.870, 1120.0, 33.4664
3.871467800, 18.870, 1171.0, 34.2199
3.882334280, 18.870, 1191.0, 34.5109
3.893200760, 18.870, 1037.0, 32.2025
3.904067240, 18.870, 1090.0, 33.0151
3.914933720, 18.870, 1087.0, 32.9697
3.925800200, 18.870, 1086.0, 32.9545
3.936666680, 18.870, 1129.0, 33.6006
3.947533160, 18.870, 1051.0, 32.4191
3.958399640, 18.870, 1063.0, 32.6037
3.969266120, 18.870, 1059.0, 32.5423
3.980132600, 18.870, 1057.0, 32.5115
3.990999080, 18.870, 1019.0, 31.9218
4.001865560, 18.870, 1078.0, 32.8329
4.012732040, 18.870, 1004.0, 31.6860
4.023598520, 18.870, 1007.0, 31.7333
4.034465000, 18.870, 1032.0, 32.1248
4.045331480, 18.870, 1006.0, 31.7175
4.056197960, 18.870, 1053.0, 32.4500
4.067064440, 18.870, 1030.0, 32.0936
4.077930920, 18.870, 974.0, 31.2090
4.088797400, 18.870, 1038.0, 32.2180
4.099663880, 18.870, 979.0, 31.2890
4.110530360, 18.870, 948.0, 30.7896
4.121396840, 18.870, 949.0, 30.8058
4.132263320, 18.870, 894.0, 29.8998
4.143129800, 18.870, 977.0, 31.2570
4.153996280, 18.870, 947.0, 30.7734
4.164862760, 18.870, 946.0, 30.7571
4.175729240, 18.870, 967.0, 31.0966
4.186595720, 18.870, 956.0, 30.9192
4.197462200, 18.870, 938.0, 30.6268
4.208328680, 18.870, 923.0, 30.3809
4.219195160, 18.870, 956.0, 30.9192
4.230061640, 18.870, 905.0, 30.0832
4.240928120, 18.870, 897.0, 29.9500
4.251794600, 18.870, 909.0, 30.1496
4.262661080, 18.870, 909.0, 30.1496
4.273527560, 18.870, 907.0, 30.1164
4.284394040, 18.870, 895.0, 29.9166
4.295260520, 18.870, 859.0, 29.3087
4.306127000, 18.870, 863.0, 29.3769
4.316993480, 18.870, 923.0, 30.3809
4.327859960, 18.870, 871.0, 29.5127
4.338726440, 18.870, 861.0, 29.3428
4.349592920, 18.870, 855.0, 29.2404
4.360459400, 18.870, 878.0, 29.6311
4.371325880, 18.870, 836.0, 28.9137
4.382192360, 18.870, 891.0, 29.8496
4.393058840, 18.870, 814.0, 28.5307
4.403925320, 18.870, 877.0, 29.6142
4.414791800, 18.870, 855.0, 29.2404
4.425658280, 18.870, 830.0, 28.8097
4.436524760, 18.870, 807.0, 28.4077
4.447391240, 18.870, 832.0, 28.8444
4.458257720, 18.870, 883.0, 29.7153
4.469124200, 18.870, 865.0, 29.4109
4.479990680, 18.870, 816.0, 28.5657
4.490857160, 18.870, 809.0, 28.4429
4.501723640, 18.870, 750.0, 27.3861
4.512590120, 18.870, 861.0, 29.3428
4.523456600, 18.870, 779.0, 27.9106
4.534323080, 18.870, 815.0, 28.5482
4.545189560, 18.870, 825.0, 28.7228
4.556056040, 18.870, 801.0, 28.3019
4.566922520, 18.870, 761.0, 27.5862
4.577789000, 18.870, 800.0, 28.2843
4.588655480, 18.870, 786.0, 28.0357
4.599521960, 18.870, 819.0, 28.6182
4.610388440, 18.870, 747.0, 27.3313
4.621254920, 18.870, 751.0, 27.4044
4.632121400, 18.870, 849.0, 29.1376
4.642987880, 18.870, 826.0, 28.7402
4.653854360, 18.870, 867.0, 29.4449
4.664720840, 18.870, 847.0, 29.1033
4.675587320, 18.870, 782.0, 27.9643
4.686453800, 18.870, 800.0, 28.2843
4.697320280, 18.870, 807.0, 28.4077
4.708186760, 18.870, 834.0, 28.8791
4.719053240, 18.870, 769.0, 27.7308
4.729919720, 18.870, 830.0, 28.8097
4.740786200, 18.870, 769.0, 27.7308
4.751652680, 18.870, 834.0, 28.8791
4.762519160, 18.870, 807.0, 28.4077
4.773385640, 18.870, 803.0, 28.3373
4.784252120, 18.870, 835.0, 28.8964
4.795118600, 18.870, 862.0, 29.3598
4.805985080, 18.870, 840.0, 28.9828
4.816851560, 18.870, 820.0, 28.6356
4.827718040, 18.870, 812.0, 28.4956
4.838584520, 18.870, 885.0, 29.7489
4.849451000, 18.870, 837.0, 28.9310
4.860317480, 18.870, 895.0, 29.9166
4.871183960, 18.870, 909.0, 30.1496
4.882050440, 18.870, 872.0, 29.5296
4.892916920, 18.870, 907.0, 30.1164
4.903783400, 18.870, 939.0, 30.6431
4.914649880, 18.870, 874.0, 29.5635
4.925516360, 18.870, 917.0, 30.2820
4.936382840, 18.870, 886.0, 29.7658
4.947249320, 18.870, 1014.0, 31.8434
4.958115800, 18.870, 1029.0, 32.0780
4.968982280, 18.870, 1008.0, 31.7490
4.979848760, 18.870, 1058.0, 32.5269
4.990715240, 18.870, 1050.0, 32.4037
5.001581720, 18.870, 1077.0, 32.8177
5.012448200, 18.870, 1144.0, 33.8231
5.023314680, 18.870, 1159.0, 34.0441
5.034181160, 18.870, 1164.0, 34.1174
5.045047640, 18.870, 1240.0, 35.2136
5.055914120, 18.870, 1264.0, 35.5528
5.066780600, 18.870, 1221.0, 34.9428
5.077647080, 18.870, 1240.0, 35.2136
5.088513560, 18.870, 1434.0, 37.8682
5.099380040, 18.870, 1323.0, 36.3731
5.110246520, 18.870, 1341.0, 36.6197
5.121113000, 18.870, 1398.0, 37.3898
5.131979480, 18.870, 1435.0, 37.8814
5.142845960, 18.870, 1429.0, 37.8021
5.153712440, 18.870, 1520.0, 38.9872
5.164578920, 18.870, 1375.0, 37.0810
5.175445400, 18.870, 1380.0, 37.1484
5.186311880, 18.870, 1408.0, 37.5233
5.197178360, 18.870, 1269.0, 35.6230
5.208044840, 18.870, 1257.0, 35.4542
5.218911320, 18.870, 1261.0, 35.5106
5.229777800, 18.870, 1240.0, 35.2136
5.240644280, 18.870, 1133.0, 33.6601
5.251510760, 18.870, 1089.0, 33.0000
5.262377240, 18.870, 1047.0, 32.3574
5.273243720, 18.870, 1017.0, 31.8904
5.284110200, 18.870, 957.0, 30.9354
5.294976680, 18.870, 917.0, 30.2820
5.305843160, 18.870, 921.0, 30.3480
5.316709640, 18.870, 858.0, 29.2916
5.327576120, 18.870, 851.0, 29.1719
5.338442600, 18.870, 786.0, 28.0357
5.349309080, 18.870, 783.0, 27.9821
5.360175560, 18.870, 784.0, 28.0000
5.371042040, 18.870, 767.0, 27.6948
5.381908520, 18.870, 736.0, 27.1293
5.392775000, 18.870, 703.0, 26.5141
5.403641480, 18.870, 647.0, 25.4362
5.414507960, 18.870, 673.0, 25.9422
5.425374440, 18.870, 641.0, 25.3180
5.436240920, 18.870, 641.0, 25.3180
5.447107400, 18.870, 566.0, 23.7908
5.457973880, 18.870, 553.0, 23.5160
5.468840360, 18.870, 575.0, 23.9792
5.479706840, 18.870, 537.0, 23.1733
5.490573320, 18.870, 566.0, 23.7908
5.501439800, 18.870, 532.0, 23.0651
5.512306280, 18.870, 530.0, 23.0217
5.523172760, 18.870, 558.0, 23.6220
5.534039240, 18.870, 514.0, 22.6716
5.544905720, 18.870, 506.0, 22.4944
5.555772200, 18.870, 564.0, 23.7487
5.566638680, 18.870, 552.0, 23.4947
5.577505160, 18.870, 482.0, 21.9545
5.588371640, 18.870, 549.0, 23.4307
5.599238120, 18.870, 541.0, 23.2594
5.610104600, 18.870, 506.0, 22.4944
5.620971080, 18.870, 535.0, 23.1301
5.631837560, 18.870, 498.0, 22.3159
5.642704040, 18.870, 485.0, 22.0227
5.653570520, 18.870, 495.0, 22.2486
5.664437000, 18.870, 497.0, 22.2935
5.675303480, 18.870, 455.0, 21.3307
5.686169960, 18.870, 498.0, 22.3159
5.697036440, 18.870, 484.0, 22.0000
5.707902920, 18.870, 504.0, 22.4499
5.718769400, 18.870, 466.0, 21.5870
5.729635880, 18.870, 473.0, 21.7486
5.740502360, 18.870, 474.0, 21.7715
5.751368840, 18.870, 507.0, 22.5167
5.762235320, 18.870, 436.0, 20.8806
5.773101800, 18.870, 454.0, 21.3073
5.783968280, 18.870, 459.0, 21.4243
5.794834760, 18.870, 459.0, 21.4243
5.805701240, 18.870, 454.0, 21.3073
5.816567720, 18.870, 452.0, 21.2603
5.827434200, 18.870, 435.0, 20.8567
5.838300680, 18.870, 453.0, 21.2838
5.849167160, 18.870, 472.0, 21.7256
5.860033640, 18.870, 448.0, 21.1660
5.870900120, 18.870, 469.0, 21.6564
5.881766600, 18.870, 475.0, 21.7945
5.892633080, 18.870, 465.0, 21.5639
5.903499560, 18.870, 464.0, 21.5407
5.914366040, 18.870, 441.0, 21.0000
5.925232520, 18.870, 433.0, 20.8087
5.936099000, 18.870, 437.0, 20.9045
5.946965480, 18.870, 433.0, 20.8087
5.957831960, 18.870, 436.0, 20.8806
5.968698440, 18.870, 457.0, 21.3776
5.979564920, 18.870, 458.0, 21.4009
5.990431400, 18.870, 441.0, 21.0000
6.001297880, 18.870, 436.0, 20.8806
6.012164360, 18.870, 406.0, 20.1494
6.023030840, 18.870, 394.0, 19.8494
6.033897320, 18.870, 418.0, 20.4450
6.044763800, 18.870, 363.0, 19.0526
6.055630280, 18.870, 431.0, 20.7605
6.066496760, 18.870, 356.0, 18.8680
6.077363240, 18.870, 404.0, 20.0998
6.088229720, 18.870, 398.0, 19.9499
6.099096200, 18.870, 432.0, 20.7846
6.109962680, 18.870, 405.0, 20.1246
6.120829160, 18.870, 413.0, 20.3224
6.131695640, 18.870, 409.0, 20.2237
6.142562120, 18.870, 354.0, 18.8149
6.153428600, 18.870, 346.0, 18.6011
6.164295080, 18.870, 391.0, 19.7737
6.175161560, 18.870, 399.0, 19.9750
6.186028040, 18.870, 416.0, 20.3961
6.196894520, 18.870, 389.0, 19.7231
6.207761000, 18.870, 427.0, 20.6640
6.218627480, 18.870, 387.0, 19.6723
6.229493960, 18.870, 384.0, 19.5959
6.240360440, 18.870, 374.0, 19.3391
6.251226920, 18.870, 389.0, 19.7231
6.262093400, 18.870, 371.0, 19.2614
6.272959880, 18.870, 374.0, 19.3391
6.283826360, 18.870, 361.0, 19.0000
6.294692840, 18.870, 382.0, 19.5448
6.305559320, 18.870, 376.0, 19.3907
6.316425800, 18.870, 396.0, 19.8997
6.327292280, 18.870, 413.0, 20.3224
6.338158760, 18.870, 368.0, 19.1833
6.349025240, 18.870, 393.0, 19.8242
6.359891720, 18.870, 386.0, 19.6469
6.370758200, 18.870, 384.0, 19.5959
6.381624680, 18.870, 380.0, 19.4936
6.392491160, 18.870, 365.0, 19.1050
6.403357640, 18.870, 380.0, 19.4936
6.414224120, 18.870, 381.0, 19.5192
6.425090600, 18.870, 343.0, 18.5203
6.435957080, 18.870, 356.0, 18.8680
6.446823560, 18.870, 344.0, 18.5472
6.457690040, 18.870, 395.0, 19.8746
6.468556520, 18.870, 384.0, 19.5959
6.479423000, 18.870, 384.0, 19.5959
6.490289480, 18.870, 399.0, 19.9750
6.501155960, 18.870, 397.0, 19.9249
6.512022440, 18.870, 334.0, 18.2757
6.522888920, 18.870, 371.0, 19.2614
6.533755400, 18.870, 351.0, 18.7350
6.544621880, 18.870, 364.0, 19.0788
6.555488360, 18.870, 337.0, 18.3576
6.566354840, 18.870, 339.0, 18.4120
6.577221320, 18.870, 369.0, 19.2094
6.588087800, 18.870, 384.0, 19.5959
6.598954280, 18.870, 370.0, 19.2354
6.609820760, 18.870, 338.0, 18.3848
6.620687240, 18.870, 346.0, 18.6011
6.631553720, 18.870, 385.0, 19.6214
6.642420200, 18.870, 401.0, 20.0250
6.653286680, 18.870, 390.0, 19.7484
6.664153160, 18.870, 394.0, 19.8494
6.675019640, 18.870, 370.0, 19.2354
6.685886120, 18.870, 375.0, 19.3649
6.696752600, 18.870, 416.0, 20.3961
6.707619080, 18.870, 370.0, 19.2354
6.718485560, 18.870, 351.0, 18.7350
6.729352040, 18.870, 358.0, 18.9209
6.740218520, 18.870, 375.0, 19.3649
6.751085000, 18.870, 349.0, 18.6815
6.761951480, 18.870, 352.0, 18.7617
6.772817960, 18.870, 403.0, 20.0749
6.783684440, 18.870, 389.0, 19.7231
6.794550920, 18.870, 377.0, 19.4165
6.805417400, 18.870, 403.0, 20.0749
6.816283880, 18.870, 353.0, 18.7883
6.827150360, 18.870, 372.0, 19.2873
6.838016840, 18.870, 355.0, 18.8414
6.848883320, 18.870, 405.0, 20.1246
6.859749800, 18.870, 369.0, 19.2094
6.870616280, 18.870, 367.0, 19.1572
6.881482760, 18.870, 331.0, 18.1934
6.892349240, 18.870, 402.0, 20.0499
6.903215720, 18.870, 359.0, 18.9473
6.914082200, 18.870, 351.0, 18.7350
6.924948680, 18.870, 376.0, 19.3907
6.935815160, 18.870, 373.0, 19.3132
6.946681640, 18.870, 379.0, 19.4679
6.957548120, 18.870, 345.0, 18.5742
6.968414600, 18.870, 388.0, 19.6977
6.979281080, 18.870, 363.0, 19.0526
6.990147560, 18.870, 364.0, 19.0788
7.001014040, 18.870, 345.0, 18.5742
7.011880520, 18.870, 336.0, 18.3303
7.022747000, 18.870, 366.0, 19.1311
7.033613480, 18.870, 374.0, 19.3391
7.044479960, 18.870, 346.0, 18.6011
7.055346440, 18.870, 355.0, 18.8414
7.066212920, 18.870, 382.0, 19.5448
7.077079400, 18.870, 359.0, 18.9473
7.087945880, 18.870, 379.0, 19.4679
7.098812360, 18.870, 361.0, 19.0000
7.109678840, 18.870, 364.0, 19.0788
7.120545320, 18.870, 381.0, 19.5192
7.131411800, 18.870, 369.0, 19.2094
7.142278280, 18.870, 349.0, 18.6815
7.153144760, 18.870, 328.0, 18.1108
7.164011240, 18.870, 348.0, 18.6548
7.174877720, 18.870, 346.0, 18.6011
7.185744200, 18.870, 355.0, 18.8414
7.196610680, 18.870, 354.0, 18.8149
7.207477160, 18.870, 344.0, 18.5472
7.218343640, 18.870, 389.0, 19.7231
7.229210120, 18.870, 335.0, 18.3030
7.240076600, 18.870, 341.0, 18.4662
7.250943080, 18.870, 362.0, 19.0263
7.261809560, 18.870, 325.0, 18.0278
7.272676040, 18.870, 386.0, 19.6469
7.283542520, 18.870, 358.0, 18.9209
7.294409000, 18.870, 354.0, 18.8149
7.305275480, 18.870, 320.0, 17.8885
7.316141960, 18.870, 346.0, 18.6011
7.327008440, 18.870, 369.0, 19.2094
7.337874920, 18.870, 382.0, 19.5448
7.348741400, 18.870, 362.0, 19.0263
7.359607880, 18.870, 346.0, 18.6011
7.370474360, 18.870, 344.0, 18.5472
7.381340840, 18.870, 369.0, 19.2094
7.392207320, 18.870, 309.0, 17.5784
7.403073800, 18.870, 382.0, 19.5448
7.413940280, 18.870, 369.0, 19.2094
7.424806760, 18.870, 357.0, 18.8944
7.435673240, 18.870, 321.0, 17.9165
7.446539720, 18.870, 354.0, 18.8149
7.457406200, 18.870, 353.0, 18.7883
7.468272680, 18.870, 342.0, 18.4932
7.479139160, 18.870, 343.0, 18.5203
7.490005640, 18.870, 335.0, 18.3030
7.500872120, 18.870, 311.0, 17.6352
7.511738600, 18.870, 335.0, 18.3030
7.522605080, 18.870, 318.0, 17.8326
7.533471560, 18.870, 349.0, 18.6815
7.544338040, 18.870, 365.0, 19.1050
7.555204520, 18.870, 347.0, 18.6279
7.566071000, 18.870, 324.0, 18.0000
7.576937480, 18.870, 347.0, 18.6279
7.587803960, 18.870, 346.0, 18.6011
7.598670440, 18.870, 376.0, 19.3907
7.609536920, 18.870, 375.0, 19.3649
7.620403400, 18.870, 360.0, 18.9737
7.631269880, 18.870, 385.0, 19.6214
7.642136360, 18.870, 355.0, 18.8414
7.653002840, 18.870, 357.0, 18.8944
7.663869320, 18.870, 340.0, 18.4391
7.674735800, 18.870, 340.0, 18.4391
7.685602280, 18.870, 378.0, 19.4422
7.696468760, 18.870, 387.0, 19.6723
7.707335240, 18.870, 375.0, 19.3649
7.718201720, 18.870, 363.0, 19.0526
7.729068200, 18.870, 357.0, 18.8944
7.739934680, 18.870, 404.0, 20.0998
7.750801160, 18.870, 342.0, 18.4932
7.761667640, 18.870, 321.0, 17.9165
7.772534120, 18.870, 369.0, 19.2094
7.783400600, 18.870, 367.0, 19.1572
7.794267080, 18.870, 353.0, 18.7883
7.805133560, 18.870, 375.0, 19.3649
7.816000040, 18.870, 350.0, 18.7083
7.826866520, 18.870, 364.0, 19.0788
7.837733000, 18.870, 363.0, 19.0526
7.848599480, 18.870, 358.0, 18.9209
7.859465960, 18.870, 373.0, 19.3132
7.870332440, 18.870, 380.0, 19.4936
7.881198920, 18.870, 352.0, 18.7617
7.892065400, 18.870, 393.0, 19.8242
7.902931880, 18.870, 352.0, 18.7617
7.913798360, 18.870, 344.0, 18.5472
7.924664840, 18.870, 366.0, 19.1311
7.935531320, 18.870, 324.0, 18.0000
7.946397800, 18.870, 364.0, 19.0788
7.957264280, 18.870, 335.0, 18.3030
7.968130760, 18.870, 399.0, 19.9750
7.978997240, 18.870, 351.0, 18.7350
7.989863720, 18.870, 356.0, 18.8680
8.000730200, 18.870, 340.0, 18.4391
8.011596680, 18.870, 315.0, 17.7482
8.022463160, 18.870, 344.0, 18.5472
8.033329640, 18.870, 345.0, 18.5742
8.044196120, 18.870, 366.0, 19.1311
8.055062600, 18.870, 365.0, 19.1050
8.065929080, 18.870, 383.0, 19.5704
8.076795560, 18.870, 336.0, 18.3303
8.087662040, 18.870, 312.0, 17.6635
8.098528520, 18.870, 325.0, 18.0278
8.109395000, 18.870, 349.0, 18.6815
8.120261480, 18.870, 359.0, 18.9473
8.131127960, 18.870, 397.0, 19.9249
8.141994440, 18.870, 334.0, 18.2757
8.152860920, 18.870, 361.0, 19.0000
8.163727400, 18.870, 367.0, 19.1572
8.174593880, 18.870, 375.0, 19.3649
8.185460360, 18.870, 397.0, 19.9249
8.196326840, 18.870, 346.0, 18.6011
8.207193320, 18.870, 350.0, 18.7083
8.218059800, 18.870, 380.0, 19.4936
8.228926280, 18.870, 347.0, 18.6279
8.239792760, 18.870, 344.0, 18.5472
8.250659240, 18.870, 357.0, 18.8944
8.261525720, 18.870, 358.0, 18.9209
8.272392200, 18.870, 360.0, 18.9737
8.283258680, 18.870, 360.0, 18.9737
8.294125160, 18.870, 374.0, 19.3391
8.304991640, 18.870, 352.0, 18.7617
8.315858120, 18.870, 379.0, 19.4679
8.326724600, 18.870, 368.0, 19.1833
8.337591080, 18.870, 364.0, 19.0788
8.348457560, 18.870, 389.0, 19.7231
8.359324040, 18.870, 348.0, 18.6548
8.370190520, 18.870, 377.0, 19.4165
8.381057000, 18.870, 371.0, 19.2614
8.391923480, 18.870, 341.0, 18.4662
8.402789960, 18.870, 360.0, 18.9737
8.413656440, 18.870, 365.0, 19.1050
8.424522920, 18.870, 360.0, 18.9737
8.435389400, 18.870, 364.0, 19.0788
8.446255880, 18.870, 392.0, 19.7990
8.457122360, 18.870, 369.0, 19.2094
8.467988840, 18.870, 326.0, 18.0555
8.478855320, 18.870, 362.0, 19.0263
8.489721800, 18.870, 359.0, 18.9473
8.500588280, 18.870, 412.0, 20.2978
8.511454760, 18.870, 396.0, 19.8997
8.522321240, 18.870, 334.0, 18.2757
8.533187720, 18.870, 381.0, 19.5192
8.544054200, 18.870, 395.0, 19.8746
8.554920680, 18.870, 364.0, 19.0788
8.565787160, 18.870, 361.0, 19.0000
8.576653640, 18.870, 354.0, 18.8149
8.587520120, 18.870, 382.0, 19.5448
8.598386600, 18.870, 346.0, 18.6011
8.609253080, 18.870, 345.0, 18.5742
8.620119560, 18.870, 358.0, 18.9209
8.630986040, 18.870, 342.0, 18.4932
8.641852520, 18.870, 347.0, 18.6279
8.652719000, 18.870, 420.0, 20.4939
8.663585480, 18.870, 353.0, 18.7883
8.674451960, 18.870, 343.0, 18.5203
8.685318440, 18.870, 344.0, 18.5472
8.696184920, 18.870, 340.0, 18.4391
8.707051400, 18.870, 350.0, 18.7083
8.717917880, 18.870, 393.0, 19.8242
8.728784360, 18.870, 343.0, 18.5203
8.739650840, 18.870, 346.0, 18.6011
8.750517320, 18.870, 374.0, 19.3391
8.761383800, 18.870, 369.0, 19.2094
8.772250280, 18.870, 386.0, 19.6469
8.783116760, 18.870, 378.0, 19.4422
8.793983240, 18.870, 357.0, 18.8944
8.804849720, 18.870, 352.0, 18.7617
8.815716200, 18.870, 396.0, 19.8997
8.826582680, 18.870, 355.0, 18.8414
8.837449160, 18.870, 390.0, 19.7484
8.848315640, 18.870, 387.0, 19.6723
8.859182120, 18.870, 385.0, 19.6214
8.870048600, 18.870, 368.0, 19.1833
8.880915080, 18.870, 376.0, 19.3907
8.891781560, 18.870, 391.0, 19.7737
8.902648040, 18.870, 388.0, 19.6977
8.913514520, 18.870, 392.0, 19.7990
8.924381000, 18.870, 344.0, 18.5472
8.935247480, 18.870, 379.0, 19.4679
8.946113960, 18.870, 358.0, 18.9209
8.956980440, 18.870, 395.0, 19.8746
8.967846920, 18.870, 400.0, 20.0000
8.978713400, 18.870, 405.0, 20.1246
8.989579880, 18.870, 370.0, 19.2354
9.000446360, 18.870, 385.0, 19.6214
9.011312840, 18.870, 378.0, 19.4422
9.022179320, 18.870, 360.0, 18.9737
9.033045800, 18.870, 385.0, 19.6214
9.043912280, 18.870, 372.0, 19.2873
9.054778760, 18.870, 401.0, 20.0250
9.065645240, 18.870, 415.0, 20.3715
9.076511720, 18.870, 394.0, 19.8494
9.087378200, 18.870, 405.0, 20.1246
9.098244680, 18.870, 386.0, 19.6469
9.109111160, 18.870, 405.0, 20.1246
9.119977640, 18.870, 401.0, 20.0250
9.130844120, 18.870, 427.0, 20.6640
9.141710600, 18.870, 389.0, 19.7231
9.152577080, 18.870, 445.0, 21.0950
9.163443560, 18.870, 402.0, 20.0499
9.174310040, 18.870, 390.0, 19.7484
9.185176520, 18.870, 423.0, 20.5670
9.196043000, 18.870, 406.0, 20.1494
9.206909480, 18.870, 421.0, 20.5183
9.217775960, 18.870, 446.0, 21.1187
9.228642440, 18.870, 407.0, 20.1742
9.239508920, 18.870, 434.0, 20.8327
9.250375400, 18.870, 417.0, 20.4206
9.261241880, 18.870, 432.0, 20.7846
9.272108360, 18.870, 430.0, 20.7364
9.282974840, 18.870, 453.0, 21.2838
9.293841320, 18.870, 429.0, 20.7123
9.304707800, 18.870, 437.0, 20.9045
9.315574280, 18.870, 463.0, 21.5174
9.326440760, 18.870, 419.0, 20.4695
9.337307240, 18.870, 466.0, 21.5870
9.348173720, 18.870, 420.0, 20.4939
9.359040200, 18.870, 481.0, 21.9317
9.369906680, 18.870, 435.0, 20.8567
9.380773160, 18.870, 483.0, 21.9773
9.391639640, 18.870, 470.0, 21.6795
9.402506120, 18.870, 458.0, 21.4009
9.413372600, 18.870, 433.0, 20.8087
9.424239080, 18.870, 500.0, 22.3607
9.435105560, 18.870, 528.0, 22.9783
9.445972040, 18.870, 496.0, 22.2711
9.456838520, 18.870, 494.0, 22.2261
9.467705000, 18.870, 481.0, 21.9317
9.478571480, 18.870, 514.0, 22.6716
9.489437960, 18.870, 495.0, 22.2486
9.500304440, 18.870, 523.0, 22.8692
9.511170920, 18.870, 551.0, 23.4734
9.522037400, 18.870, 506.0, 22.4944
9.532903880, 18.870, 501.0, 22.3830
9.543770360, 18.870, 517.0, 22.7376
9.554636840, 18.870, 471.0, 21.7025
9.565503320, 18.870, 490.0, 22.1359
9.576369800, 18.870, 512.0, 22.6274
9.587236280, 18.870, 486.0, 22.0454
9.598102760, 18.870, 492.0, 22.1811
9.608969240, 18.870, 464.0, 21.5407
9.619835720, 18.870, 446.0, 21.1187
9.630702200, 18.870, 497.0, 22.2935
9.641568680, 18.870, 487.0, 22.0681
9.652435160, 18.870, 489.0, 22.1133
9.663301640, 18.870, 470.0, 21.6795
9.674168120, 18.870, 416.0, 20.3961
9.685034600, 18.870, 454.0, 21.3073
9.695901080, 18.870, 470.0, 21.6795
9.706767560, 18.870, 390.0, 19.7484
9.717634040, 18.870, 448.0, 21.1660
9.728500520, 18.870, 433.0, 20.8087
9.739367000, 18.870, 433.0, 20.8087
9.750233480, 18.870, 457.0, 21.3776
9.761099960, 18.870, 452.0, 21.2603
9.771966440, 18.870, 399.0, 19.9750
9.782832920, 18.870, 398.0, 19.9499
9.793699400, 18.870, 422.0, 20.5426
9.804565880, 18.870, 434.0, 20.8327
9.815432360, 18.870, 390.0, 19.7484
9.826298840, 18.870, 431.0, 20.7605
9.837165320, 18.870, 418.0, 20.4450
9.848031800, 18.870, 408.0, 20.1990
9.858898280, 18.870, 432.0, 20.7846
9.869764760, 18.870, 407.0, 20.1742
9.880631240, 18.870, 425.0, 20.6155
9.891497720, 18.870, 405.0, 20.1246
9.902364200, 18.870, 377.0, 19.4165
9.913230680, 18.870, 465.0, 21.5639
9.924097160, 18.870, 413.0, 20.3224
9.934963640, 18.870, 413.0, 20.3224
9.945830120, 18.870, 431.0, 20.7605
9.956696600, 18.870, 414.0, 20.3470
9.967563080, 18.870, 419.0, 20.4695
9.978429560, 18.870, 418.0, 20.4450
9.989296040, 18.870, 387.0, 19.6723
10.000162520, 18.870, 443.0, 21.0476
10.011029000, 18.870, 411.0, 20.2731
10.021895480, 18.870, 431.0, 20.7605
10.032761960, 18.870, 373.0, 19.3132
10.043628440, 18.870, 388.0, 19.6977
10.054494920, 18.870, 399.0, 19.9750
10.065361400, 18.870, 430.0, 20.7364
10.076227880, 18.870, 411.0, 20.2731
10.087094360, 18.870, 391.0, 19.7737
10.097960840, 18.870, 399.0, 19.9750
10.108827320, 18.870, 367.0, 19.1572
10.119693800, 18.870, 435.0, 20.8567
10.130560280, 18.870, 410.0, 20.2485
10.141426760, 18.870, 434.0, 20.8327
10.152293240, 18.870, 372.0, 19.2873
10.163159720, 18.870, 401.0, 20.0250
10.174026200, 18.870, 449.0, 21.1896
10.184892680, 18.870, 401.0, 20.0250
10.195759160, 18.870, 443.0, 21.0476
10.206625640, 18.870, 396.0, 19.8997
10.217492120, 18.870, 413.0, 20.3224
10.228358600, 18.870, 415.0, 20.3715
10.239225080, 18.870, 424.0, 20.5913
10.250091560, 18.870, 410.0, 20.2485
10.260958040, 18.870, 363.0, 19.0526
10.271824520, 18.870, 431.0, 20.7605
10.282691000, 18.870, 364.0, 19.0788
10.293557480, 18.870, 386.0, 19.6469
10.304423960, 18.870, 384.0, 19.5959
10.315290440, 18.870, 413.0, 20.3224
10.326156920, 18.870, 418.0, 20.4450
10.337023400, 18.870, 407.0, 20.1742
10.347889880, 18.870, 375.0, 19.3649
10.358756360, 18.870, 396.0, 19.8997
10.369622840, 18.870, 435.0, 20.8567
10.380489320, 18.870, 357.0, 18.8944
10.391355800, 18.870, 411.0, 20.2731
10.402222280, 18.870, 409.0, 20.2237
10.413088760, 18.870, 408.0, 20.1990
10.423955240, 18.870, 399.0, 19.9750
10.434821720, 18.870, 361.0, 19.0000
10.445688200, 18.870, 413.0, 20.3224
10.456554680, 18.870, 403.0, 20.0749
10.467421160, 18.870, 346.0, 18.6011
10.478287640, 18.870, 415.0, 20.3715
10.489154120, 18.870, 363.0, 19.0526
10.500020600, 18.870, 409.0, 20.2237
10.510887080, 18.870, 407.0, 20.1742
10.521753560, 18.870, 442.0, 21.0238
10.532620040, 18.870, 370.0, 19.2354
10.543486520, 18.870, 410.0, 20.2485
10.554353000, 18.870, 420.0, 20.4939
10.565219480, 18.870, 376.0, 19.3907
10.576085960, 18.870, 420.0, 20.4939
10.586952440, 18.870, 393.0, 19.8242
10.597818920, 18.870, 351.0, 18.7350
10.608685400, 18.870, 387.0, 19.6723
10.619551880, 18.870, 382.0, 19.5448
10.630418360, 18.870, 371.0, 19.2614
10.641284840, 18.870, 359.0, 18.9473
10.652151320, 18.870, 369.0, 19.2094
10.663017800, 18.870, 393.0, 19.8242
10.673884280, 18.870, 347.0, 18.6279
10.684750760, 18.870, 391.0, 19.7737
10.695617240, 18.870, 385.0, 19.6214
10.706483720, 18.870, 385.0, 19.6214
10.717350200, 18.870, 359.0, 18.9473
10.728216680, 18.870, 387.0, 19.6723
10.739083160, 18.870, 355.0, 18.8414
10.749949640, 18.870, 366.0, 19.1311
10.760816120, 18.870, 392.0, 19.7990
10.771682600, 18.870, 350.0, 18.7083
10.782549080, 18.870, 363.0, 19.0526
10.793415560, 18.870, 383.0, 19.5704
10.804282040, 18.870, 341.0, 18.4662
10.815148520, 18.870, 385.0, 19.6214
10.826015000, 18.870, 371.0, 19.2614
10.836881480, 18.870, 370.0, 19.2354
10.847747960, 18.870, 369.0, 19.2094
10.858614440, 18.870, 394.0, 19.8494
10.869480920, 18.870, 394.0, 19.8494
10.880347400, 18.870, 389.0, 19.7231
10.891213880, 18.870, 405.0, 20.1246
10.902080360, 18.870, 353.0, 18.7883
10.912946840, 18.870, 396.0, 19.8997
10.923813320, 18.870, 354.0, 18.8149
10.934679800, 18.870, 374.0, 19.3391
10.945546280, 18.870, 329.0, 18.1384
10.956412760, 18.870, 365.0, 19.1050
10.967279240, 18.870, 375.0, 19.3649
10.978145720, 18.870, 377.0, 19.4165
10.989012200, 18.870, 403.0, 20.0749
10.999878680, 18.870, 375.0, 19.3649
11.010745160, 18.870, 399.0, 19.9750
11.021611640, 18.870, 378.0, 19.4422
11.032478120, 18.870, 381.0, 19.5192
11.043344600, 18.870, 334.0, 18.2757
11.054211080, 18.870, 397.0, 19.9249
11.065077560, 18.870, 373.0, 19.3132
11.075944040, 18.870, 365.0, 19.1050
11.086810520, 18.870, 367.0, 19.1572
11.097677000, 18.870, 407.0, 20.1742
11.108543480, 18.870, 383.0, 19.5704
11.119409960, 18.870, 366.0, 19.1311
11.130276440, 18.870, 394.0, 19.8494
11.141142920, 18.870, 366.0, 19.1311
11.152009400, 18.870, 411.0, 20.2731
11.162875880, 18.870, 410.0, 20.2485
11.173742360, 18.870, 373.0, 19.3132
11.184608840, 18.870, 371.0, 19.2614
11.195475320, 18.870, 390.0, 19.7484
11.206341800, 18.870, 392.0, 19.7990
11.217208280, 18.870, 370.0, 19.2354
11.228074760, 18.870, 396.0, 19.8997
11.238941240, 18.870, 352.0, 18.7617
11.249807720, 18.870, 392.0, 19.7990
11.260674200, 18.870, 375.0, 19.3649
11.271540680, 18.870, 383.0, 19.5704
11.282407160, 18.870, 389.0, 19.7231
11.293273640, 18.870, 359.0, 18.9473
11.304140120, 18.870, 407.0, 20.1742
11.315006600, 18.870, 374.0, 19.3391
11.325873080, 18.870, 391.0, 19.7737
11.336739560, 18.870, 402.0, 20.0499
11.347606040, 18.870, 397.0, 19.9249
11.358472520, 18.870, 428.0, 20.6882
11.369339000, 18.870, 413.0, 20.3224
11.380205480, 18.870, 359.0, 18.9473
11.391071960, 18.870, 410.0, 20.2485
11.401938440, 18.870, 370.0, 19.2354
11.412804920, 18.870, 390.0, 19.7484
11.423671400, 18.870, 367.0, 19.1572
11.434537880, 18.870, 406.0, 20.1494
11.445404360, 18.870, 358.0, 18.9209
11.456270840, 18.870, 347.0, 18.6279
11.467137320, 18.870, 398.0, 19.9499
11.478003800, 18.870, 380.0, 19.4936
11.488870280, 18.870, 346.0, 18.6011
11.499736760, 18.870, 363.0, 19.0526
11.510603240, 18.870, 371.0, 19.2614
11.521469720, 18.870, 399.0, 19.9750
11.532336200, 18.870, 389.0, 19.7231
11.543202680, 18.870, 360.0, 18.9737
11.554069160, 18.870, 393.0, 19.8242
11.564935640, 18.870, 344.0, 18.5472
11.575802120, 18.870, 419.0, 20.4695
11.586668600, 18.870, 394.0, 19.8494
11.597535080, 18.870, 410.0, 20.2485
11.608401560, 18.870, 384.0, 19.5959
11.619268040, 18.870, 390.0, 19.7484
11.630134520, 18.870, 389.0, 19.7231
11.641001000, 18.870, 393.0, 19.8242
11.651867480, 18.870, 399.0, 19.9750
11.662733960, 18.870, 376.0, 19.3907
11.673600440, 18.870, 398.0, 19.9499
11.684466920, 18.870, 412.0, 20.2978
11.695333400, 18.870, 404.0, 20.0998
11.706199880, 18.870, 401.0, 20.0250
11.717066360, 18.870, 376.0, 19.3907
11.727932840, 18.870, 347.0, 18.6279
11.738799320, 18.870, 349.0, 18.6815
11.749665800, 18.870, 412.0, 20.2978
11.760532280, 18.870, 381.0, 19.5192
11.771398760, 18.870, 398.0, 19.9499
11.782265240, 18.870, 370.0, 19.2354
11.793131720, 18.870, 403.0, 20.0749
11.803998200, 18.870, 413.0, 20.3224
11.814864680, 18.870, 426.0, 20.6398
11.825731160, 18.870, 391.0, 19.7737
11.836597640, 18.870, 387.0, 19.6723
11.847464120, 18.870, 420.0, 20.4939
11.858330600, 18.870, 397.0, 19.9249
11.869197080, 18.870, 447.0, 21.1424
11.880063560, 18.870, 423.0, 20.5670
11.890930040, 18.870, 436.0, 20.8806
11.901796520, 18.870, 403.0, 20.0749
11.912663000, 18.870, 426.0, 20.6398
11.923529480, 18.870, 405.0, 20.1246
11.934395960, 18.870, 439.0, 20.9523
11.945262440, 18.870, 446.0, 21.1187
11.956128920, 18.870, 420.0, 20.4939
11.966995400, 18.870, 412.0, 20.2978
11.977861880, 18.870, 428.0, 20.6882
11.988728360, 18.870, 420.0, 20.4939
11.999594840, 18.870, 499.0, 22.3383
12.010461320, 18.870, 438.0, 20.9284
12.021327800, 18.870, 480.0, 21.9089
12.032194280, 18.870, 496.0, 22.2711
12.043060760, 18.870, 488.0, 22.0907
12.053927240, 18.870, 506.0, 22.4944
12.064793720, 18.870, 527.0, 22.9565
12.075660200, 18.870, 543.0, 23.3024
12.086526680, 18.870, 509.0, 22.5610
12.097393160, 18.870, 611.0, 24.7184
12.108259640, 18.870, 604.0, 24.5764
12.119126120, 18.870, 579.0, 24.0624
12.129992600, 18.870, 627.0, 25.0400
12.140859080, 18.870, 611.0, 24.7184
12.151725560, 18.870, 604.0, 24.5764
12.162592040, 18.870, 624.0, 24.9800
12.173458520, 18.870, 588.0, 24.2487
12.184325000, 18.870, 631.0, 25.1197
12.195191480, 18.870, 614.0, 24.7790
12.206057960, 18.870, 656.0, 25.6125
12.216924440, 18.870, 661.0, 25.7099
12.227790920, 18.870, 653.0, 25.5539
12.238657400, 18.870, 674.0, 25.9615
12.249523880, 18.870, 668.0, 25.8457
12.260390360, 18.870, 661.0, 25.7099
12.271256840, 18.870, 639.0, 25.2784
12.282123320, 18.870, 614.0, 24.7790
12.292989800, 18.870, 631.0, 25.1197
12.303856280, 18.870, 622.0, 24.9399
12.314722760, 18.870, 605.0, 24.5967
12.325589240, 18.870, 628.0, 25.0599
12.336455720, 18.870, 591.0, 24.3105
12.347322200, 18.870, 580.0, 24.0832
12.358188680, 18.870, 580.0, 24.0832
12.369055160, 18.870, 574.0, 23.9583
12.379921640, 18.870, 594.0, 24.3721
12.390788120, 18.870, 545.0, 23.3452
12.401654600, 18.870, 552.0, 23.4947
12.412521080, 18.870, 579.0, 24.0624
12.423387560, 18.870, 533.0, 23.0868
12.434254040, 18.870, 503.0, 22.4277
12.445120520, 18.870, 465.0, 21.5639
12.455987000, 18.870, 483.0, 21.9773
12.466853480, 18.870, 459.0, 21.4243
12.477719960, 18.870, 477.0, 21.8403
12.488586440, 18.870, 444.0, 21.0713
12.499452920, 18.870, 481.0, 21.9317
12.510319400, 18.870, 428.0, 20.6882
12.521185880, 18.870, 469.0, 21.6564
12.532052360, 18.870, 431.0, 20.7605
12.542918840, 18.870, 458.0, 21.4009
12.553785320, 18.870, 406.0, 20.1494
12.564651800, 18.870, 396.0, 19.8997
12.575518280, 18.870, 464.0, 21.5407
12.586384760, 18.870, 421.0, 20.5183
12.597251240, 18.870, 460.0, 21.4476
12.608117720, 18.870, 393.0, 19.8242
12.618984200, 18.870, 401.0, 20.0250
12.629850680, 18.870, 427.0, 20.6640
12.640717160, 18.870, 425.0, 20.6155
12.651583640, 18.870, 424.0, 20.5913
12.662450120, 18.870, 389.0, 19.7231
12.673316600, 18.870, 391.0, 19.7737
12.684183080, 18.870, 421.0, 20.5183
12.695049560, 18.870, 435.0, 20.8567
12.705916040, 18.870, 437.0, 20.9045
12.716782520, 18.870, 429.0, 20.7123
12.727649000, 18.870, 405.0, 20.1246
12.738515480, 18.870, 390.0, 19.7484
12.749381960, 18.870, 415.0, 20.3715
12.760248440, 18.870, 358.0, 18.9209
12.771114920, 18.870, 412.0, 20.2978
12.781981400, 18.870, 361.0, 19.0000
12.792847880, 18.870, 355.0, 18.8414
12.803714360, 18.870, 391.0, 19.7737
12.814580840, 18.870, 375.0, 19.3649
12.825447320, 18.870, 395.0, 19.8746
12.836313800, 18.870, 380.0, 19.4936
12.847180280, 18.870, 431.0, 20.7605
12.858046760, 18.870, 368.0, 19.1833
12.868913240, 18.870, 403.0, 20.0749
12.879779720, 18.870, 412.0, 20.2978
12.890646200, 18.870, 340.0, 18.4391
12.901512680, 18.870, 346.0, 18.6011
12.912379160, 18.870, 317.0, 17.8045
12.923245640, 18.870, 381.0, 19.5192
12.934112120, 18.870, 390.0, 19.7484
12.944978600, 18.870, 391.0, 19.7737
12.955845080, 18.870, 412.0, 20.2978
12.966711560, 18.870, 452.0, 21.2603
12.977578040, 18.870, 367.0, 19.1572
12.988444520, 18.870, 333.0, 18.2483
12.999311000, 18.870, 384.0, 19.5959
13.010177480, 18.870, 402.0, 20.0499
13.021043960, 18.870, 404.0, 20.0998
13.031910440, 18.870, 382.0, 19.5448
13.042776920, 18.870, 351.0, 18.7350
13.053643400, 18.870, 353.0, 18.7883
13.064509880, 18.870, 410.0, 20.2485
13.075376360, 18.870, 383.0, 19.5704
13.086242840, 18.870, 403.0, 20.0749
13.097109320, 18.870, 370.0, 19.2354
13.107975800, 18.870, 358.0, 18.9209
13.118842280, 18.870, 390.0, 19.7484
13.129708760, 18.870, 384.0, 19.5959
13.140575240, 18.870, 349.0, 18.6815
13.151441720, 18.870, 423.0, 20.5670
13.162308200, 18.870, 384.0, 19.5959
13.173174680, 18.870, 378.0, 19.4422
13.184041160, 18.870, 378.0, 19.4422
13.194907640, 18.870, 376.0, 19.3907
13.205774120, 18.870, 381.0, 19.5192
13.216640600, 18.870, 369.0, 19.2094
13.227507080, 18.870, 391.0, 19.7737
13.238373560, 18.870, 360.0, 18.9737
13.249240040, 18.870, 414.0, 20.3470
13.260106520, 18.870, 360.0, 18.9737
13.270973000, 18.870, 371.0, 19.2614
13.281839480, 18.870, 390.0, 19.7484
13.292705960, 18.870, 389.0, 19.7231
13.303572440, 18.870, 357.0, 18.8944
13.314438920, 18.870, 395.0, 19.8746
13.325305400, 18.870, 384.0, 19.5959
13.336171880, 18.870, 381.0, 19.5192
13.347038360, 18.870, 370.0, 19.2354
13.357904840, 18.870, 383.0, 19.5704
13.368771320, 18.870, 384.0, 19.5959
13.379637800, 18.870, 378.0, 19.4422
13.390504280, 18.870, 372.0, 19.2873
13.401370760, 18.870, 385.0, 19.6214
13.412237240, 18.870, 390.0, 19.7484
13.423103720, 18.870, 370.0, 19.2354
13.433970200, 18.870, 371.0, 19.2614
13.444836680, 18.870, 393.0, 19.8242
13.455703160, 18.870, 352.0, 18.7617
13.466569640, 18.870, 382.0, 19.5448
13.477436120, 18.870, 370.0, 19.2354
13.488302600, 18.870, 382.0, 19.5448
13.499169080, 18.870, 409.0, 20.2237
13.510035560, 18.870, 430.0, 20.7364
13.520902040, 18.870, 412.0, 20.2978
13.531768520, 18.870, 388.0, 19.6977
13.542635000, 18.870, 387.0, 19.6723
13.553501480, 18.870, 386.0, 19.6469
13.564367960, 18.870, 361.0, 19.0000
13.575234440, 18.870, 432.0, 20.7846
13.586100920, 18.870, 350.0, 18.7083
13.596967400, 18.870, 385.0, 19.6214
13.607833880, 18.870, 389.0, 19.7231
13.618700360, 18.870, 397.0, 19.9249
13.629566840, 18.870, 359.0, 18.9473
13.640433320, 18.870, 393.0, 19.8242
13.651299800, 18.870, 413.0, 20.3224
13.662166280, 18.870, 420.0, 20.4939
13.673032760, 18.870, 444.0, 21.0713
13.683899240, 18.870, 386.0, 19.6469
13.694765720, 18.870, 415.0, 20.3715
13.705632200, 18.870, 391.0, 19.7737
13.716498680, 18.870, 400.0, 20.0000
13.727365160, 18.870, 393.0, 19.8242
13.738231640, 18.870, 391.0, 19.7737
13.749098120, 18.870, 393.0, 19.8242
13.759964600, 18.870, 410.0, 20.2485
13.770831080, 18.870, 378.0, 19.4422
13.781697560, 18.870, 429.0, 20.7123
13.792564040, 18.870, 421.0, 20.5183
13.803430520, 18.870, 413.0, 20.3224
13.814297000, 18.870, 431.0, 20.7605
13.825163480, 18.870, 444.0, 21.0713
13.836029960, 18.870, 424.0, 20.5913
13.846896440, 18.870, 433.0, 20.8087
13.857762920, 18.870, 404.0, 20.0998
13.868629400, 18.870, 412.0, 20.2978
13.879495880, 18.870, 428.0, 20.6882
13.890362360, 18.870, 434.0, 20.8327
13.901228840, 18.870, 444.0, 21.0713
13.912095320, 18.870, 426.0, 20.6398
13.922961800, 18.870, 427.0, 20.6640
13.933828280, 18.870, 430.0, 20.7364
13.944694760, 18.870, 452.0, 21.2603
13.955561240, 18.870, 451.0, 21.2368
13.966427720, 18.870, 433.0, 20.8087
13.977294200, 18.870, 460.0, 21.4476
13.988160680, 18.870, 417.0, 20.4206
13.999027160, 18.870, 482.0, 21.9545
14.009893640, 18.870, 464.0, 21.5407
14.020760120, 18.870, 475.0, 21.7945
14.031626600, 18.870, 470.0, 21.6795
14.042493080, 18.870, 530.0, 23.0217
14.053359560, 18.870, 519.0, 22.7816
14.064226040, 18.870, 516.0, 22.7156
14.075092520, 18.870, 516.0, 22.7156
14.085959000, 18.870, 546.0, 23.3666
14.096825480, 18.870, 469.0, 21.6564
14.107691960, 18.870, 545.0, 23.3452
14.118558440, 18.870, 560.0, 23.6643
14.129424920, 18.870, 569.0, 23.8537
14.140291400, 18.870, 536.0, 23.1517
14.151157880, 18.870, 557.0, 23.6008
14.162024360, 18.870, 521.0, 22.8254
14.172890840, 18.870, 546.0, 23.3666
14.183757320, 18.870, 532.0, 23.0651
14.194623800, 18.870, 566.0, 23.7908
14.205490280, 18.870, 533.0, 23.0868
14.216356760, 18.870, 497.0, 22.2935
14.227223240, 18.870, 527.0, 22.9565
14.238089720, 18.870, 522.0, 22.8473
14.248956200, 18.870, 539.0, 23.2164
14.259822680, 18.870, 516.0, 22.7156
14.270689160, 18.870, 509.0, 22.5610
14.281555640, 18.870, 525.0, 22.9129
14.292422120, 18.870, 511.0, 22.6053
14.303288600, 18.870, 506.0, 22.4944
14.314155080, 18.870, 508.0, 22.5389
14.325021560, 18.870, 517.0, 22.7376
14.335888040, 18.870, 528.0, 22.9783
14.346754520, 18.870, 432.0, 20.7846
14.357621000, 18.870, 498.0, 22.3159
14.368487480, 18.870, 483.0, 21.9773
14.379353960, 18.870, 466.0, 21.5870
14.390220440, 18.870, 460.0, 21.4476
14.401086920, 18.870, 428.0, 20.6882
14.411953400, 18.870, 455.0, 21.3307
14.422819880, 18.870, 431.0, 20.7605
14.433686360, 18.870, 448.0, 21.1660
14.444552840, 18.870, 407.0, 20.1742
14.455419320, 18.870, 480.0, 21.9089
14.466285800, 18.870, 431.0, 20.7605
14.477152280, 18.870, 445.0, 21.0950
14.488018760, 18.870, 439.0, 20.9523
14.498885240, 18.870, 437.0, 20.9045
14.509751720, 18.870, 394.0, 19.8494
14.520618200, 18.870, 386.0, 19.6469
14.531484680, 18.870, 426.0, 20.6398
14.542351160, 18.870, 416.0, 20.3961
14.553217640, 18.870, 415.0, 20.3715
14.564084120, 18.870, 419.0, 20.4695
14.574950600, 18.870, 408.0, 20.1990
14.585817080, 18.870, 380.0, 19.4936
14.596683560, 18.870, 367.0, 19.1572
14.607550040, 18.870, 393.0, 19.8242
14.618416520, 18.870, 358.0, 18.9209
14.629283000, 18.870, 387.0, 19.6723
14.640149480, 18.870, 428.0, 20.6882
14.651015960, 18.870, 368.0, 19.1833
14.661882440, 18.870, 415.0, 20.3715
14.672748920, 18.870, 399.0, 19.9750
14.683615400, 18.870, 396.0, 19.8997
14.694481880, 18.870, 451.0, 21.2368
14.705348360, 18.870, 399.0, 19.9750
14.716214840, 18.870, 384.0, 19.5959
14.727081320, 18.870, 352.0, 18.7617
14.737947800, 18.870, 392.0, 19.7990
14.748814280, 18.870, 407.0, 20.1742
14.759680760, 18.870, 413.0, 20.3224
14.770547240, 18.870, 410.0, 20.2485
14.781413720, 18.870, 412.0, 20.2978
14.792280200, 18.870, 422.0, 20.5426
14.803146680, 18.870, 431.0, 20.7605
14.814013160, 18.870, 376.0, 19.3907
14.824879640, 18.870, 394.0, 19.8494
14.835746120, 18.870, 419.0, 20.4695
14.846612600, 18.870, 438.0, 20.9284
14.857479080, 18.870, 422.0, 20.5426
14.868345560, 18.870, 413.0, 20.3224
14.879212040, 18.870, 399.0, 19.9750
14.890078520, 18.870, 447.0, 21.1424
14.900945000, 18.870, 413.0, 20.3224
14.911811480, 18.870, 398.0, 19.9499
14.922677960, 18.870, 382.0, 19.5448
14.933544440, 18.870, 402.0, 20.0499
14.944410920, 18.870, 438.0, 20.9284
14.955277400, 18.870, 432.0, 20.7846
14.966143880, 18.870, 436.0, 20.8806
14.977010360, 18.870, 439.0, 20.9523
14.987876840, 18.870, 440.0, 20.9762
14.998743320, 18.870, 441.0, 21.0000
15.009609800, 18.870, 449.0, 21.1896
15.020476280, 18.870, 429.0, 20.7123
15.031342760, 18.870, 448.0, 21.1660
15.042209240, 18.870, 448.0, 21.1660
15.053075720, 18.870, 440.0, 20.9762
15.063942200, 18.870, 420.0, 20.4939
15.074808680, 18.870, 443.0, 21.0476
15.085675160, 18.870, 415.0, 20.3715
15.096541640, 18.870, 484.0, 22.0000
15.107408120, 18.870, 455.0, 21.3307
15.118274600, 18.870, 433.0, 20.8087
15.129141080, 18.870, 452.0, 21.2603
15.140007560, 18.870, 518.0, 22.7596
15.150874040, 18.870, 474.0, 21.7715
15.161740520, 18.870, 455.0, 21.3307
15.172607000, 18.870, 481.0, 21.9317
15.183473480, 18.870, 429.0, 20.7123
15.194339960, 18.870, 475.0, 21.7945
15.205206440, 18.870, 417.0, 20.4206
15.216072920, 18.870, 474.0, 21.7715
15.226939400, 18.870, 456.0, 21.3542
15.237805880, 18.870, 485.0, 22.0227
15.248672360, 18.870, 498.0, 22.3159
15.259538840, 18.870, 489.0, 22.1133
15.270405320, 18.870, 458.0, 21.4009
15.281271800, 18.870, 444.0, 21.0713
15.292138280, 18.870, 512.0, 22.6274
15.303004760, 18.870, 484.0, 22.0000
15.313871240, 18.870, 537.0, 23.1733
15.324737720, 18.870, 493.0, 22.2036
15.335604200, 18.870, 494.0, 22.2261
15.346470680, 18.870, 525.0, 22.9129
15.357337160, 18.870, 507.0, 22.5167
15.368203640, 18.870, 565.0, 23.7697
15.379070120, 18.870, 576.0, 24.0000
15.389936600, 18.870, 621.0, 24.9199
15.400803080, 18.870, 593.0, 24.3516
15.411669560, 18.870, 609.0, 24.6779
15.422536040, 18.870, 635.0, 25.1992
15.433402520, 18.870, 688.0, 26.2298
15.444269000, 18.870, 705.0, 26.5518
15.455135480, 18.870, 687.0, 26.2107
15.466001960, 18.870, 817.0, 28.5832
15.476868440, 18.870, 746.0, 27.3130
15.487734920, 18.870, 871.0, 29.5127
15.498601400, 18.870, 867.0, 29.4449
15.509467880, 18.870, 902.0, 30.0333
15.520334360, 18.870, 967.0, 31.0966
15.531200840, 18.870, 974.0, 31.2090
15.542067320, 18.870, 1107.0, 33.2716
15.552933800, 18.870, 1127.0, 33.5708
15.563800280, 18.870, 1137.0, 33.7194
15.574666760, 18.870, 1213.0, 34.8281
15.585533240, 18.870, 1318.0, 36.3043
15.596399720, 18.870, 1375.0, 37.0810
15.607266200, 18.870, 1392.0, 37.3095
15.618132680, 18.870, 1430.0, 37.8153
15.628999160, 18.870, 1531.0, 39.1280
15.639865640, 18.870, 1442.0, 37.9737
15.650732120, 18.870, 1477.0, 38.4318
15.661598600, 18.870, 1524.0, 39.0384
15.672465080, 18.870, 1436.0, 37.8946
15.683331560, 18.870, 1459.0, 38.1969
15.694198040, 18.870, 1551.0, 39.3827
15.705064520, 18.870, 1544.0, 39.2938
15.715931000, 18.870, 1520.0, 38.9872
15.726797480, 18.870, 1514.0, 38.9102
15.737663960, 18.870, 1524.0, 39.0384
15.748530440, 18.870, 1497.0, 38.6911
15.759396920, 18.870, 1419.0, 37.6696
15.770263400, 18.870, 1410.0, 37.5500
15.781129880, 18.870, 1341.0, 36.6197
15.791996360, 18.870, 1323.0, 36.3731
15.802862840, 18.870, 1303.0, 36.0971
15.813729320, 18.870, 1275.0, 35.7071
15.824595800, 18.870, 1229.0, 35.0571
15.835462280, 18.870, 1139.0, 33.7491
15.846328760, 18.870, 1177.0, 34.3074
15.857195240, 18.870, 1155.0, 33.9853
15.868061720, 18.870, 1138.0, 33.7343
15.878928200, 18.870, 1037.0, 32.2025
15.889794680, 18.870, 1040.0, 32.2490
15.900661160, 18.870, 982.0, 31.3369
15.911527640, 18.870, 912.0, 30.1993
15.922394120, 18.870, 863.0, 29.3769
15.933260600, 18.870, 883.0, 29.7153
15.944127080, 18.870, 827.0, 28.7576
15.954993560, 18.870, 818.0, 28.6007
15.965860040, 18.870, 791.0, 28.1247
15.976726520, 18.870, 745.0, 27.2947
15.987593000, 18.870, 703.0, 26.5141
15.998459480, 18.870, 660.0, 25.6905
16.009325960, 18.870, 629.0, 25.0799
16.020192440, 18.870, 621.0, 24.9199
16.031058920, 18.870, 599.0, 24.4745
16.041925400, 18.870, 570.0, 23.8747
16.052791880, 18.870, 558.0, 23.6220
16.063658360, 18.870, 556.0, 23.5797
16.074524840, 18.870, 558.0, 23.6220
16.085391320, 18.870, 513.0, 22.6495
16.096257800, 18.870, 500.0, 22.3607
16.107124280, 18.870, 512.0, 22.6274
16.117990760, 18.870, 549.0, 23.4307
16.128857240, 18.870, 520.0, 22.8035
16.139723720, 18.870, 518.0, 22.7596
16.150590200, 18.870, 467.0, 21.6102
16.161456680, 18.870, 501.0, 22.3830
16.172323160, 18.870, 552.0, 23.4947
16.183189640, 18.870, 507.0, 22.5167
16.194056120, 18.870, 470.0, 21.6795
16.204922600, 18.870, 499.0, 22.3383
16.215789080, 18.870, 503.0, 22.4277
16.226655560, 18.870, 514.0, 22.6716
16.237522040, 18.870, 488.0, 22.0907
16.248388520, 18.870, 487.0, 22.0681
16.259255000, 18.870, 507.0, 22.5167
16.270121480, 18.870, 448.0, 21.1660
16.280987960, 18.870, 459.0, 21.4243
16.291854440, 18.870, 451.0, 21.2368
16.302720920, 18.870, 458.0, 21.4009
16.313587400, 18.870, 407.0, 20.1742
16.324453880, 18.870, 428.0, 20.6882
16.335320360, 18.870, 446.0, 21.1187
16.346186840, 18.870, 440.0, 20.9762
16.357053320, 18.870, 411.0, 20.2731
16.367919800, 18.870, 457.0, 21.3776
16.378786280, 18.870, 393.0, 19.8242
16.389652760, 18.870, 447.0, 21.1424
16.400519240, 18.870, 467.0, 21.6102
16.411385720, 18.870, 434.0, 20.8327
16.422252200, 18.870, 438.0, 20.9284
16.433118680, 18.870, 431.0, 20.7605
16.443985160, 18.870, 416.0, 20.3961
16.454851640, 18.870, 417.0, 20.4206
16.465718120, 18.870, 413.0, 20.3224
16.476584600, 18.870, 416.0, 20.3961
16.487451080, 18.870, 407.0, 20.1742
16.498317560, 18.870, 414.0, 20.3470
16.509184040, 18.870, 427.0, 20.6640
16.520050520, 18.870, 395.0, 19.8746
16.530917000, 18.870, 408.0, 20.1990
16.541783480, 18.870, 410.0, 20.2485
16.552649960, 18.870, 403.0, 20.0749
16.563516440, 18.870, 460.0, 21.4476
16.574382920, 18.870, 446.0, 21.1187
16.585249400, 18.870, 425.0, 20.6155
16.596115880, 18.870, 414.0, 20.3470
16.606982360, 18.870, 374.0, 19.3391
16.617848840, 18.870, 426.0, 20.6398
16.628715320, 18.870, 403.0, 20.0749
16.639581800, 18.870, 410.0, 20.2485
16.650448280, 18.870, 392.0, 19.7990
16.661314760, 18.870, 411.0, 20.2731
16.672181240, 18.870, 439.0, 20.9523
16.683047720, 18.870, 373.0, 19.3132
16.693914200, 18.870, 420.0, 20.4939
16.704780680, 18.870, 411.0, 20.2731
16.715647160, 18.870, 389.0, 19.7231
16.726513640, 18.870, 473.0, 21.7486
16.737380120, 18.870, 421.0, 20.5183
16.748246600, 18.870, 422.0, 20.5426
16.759113080, 18.870, 405.0, 20.1246
16.769979560, 18.870, 396.0, 19.8997
16.780846040, 18.870, 414.0, 20.3470
16.791712520, 18.870, 403.0, 20.0749
16.802579000, 18.870, 412.0, 20.2978
16.813445480, 18.870, 404.0, 20.0998
16.824311960, 18.870, 368.0, 19.1833
16.835178440, 18.870, 408.0, 20.1990
16.846044920, 18.870, 396.0, 19.8997
16.856911400, 18.870, 428.0, 20.6882
16.867777880, 18.870, 382.0, 19.5448
16.878644360, 18.870, 452.0, 21.2603
16.889510840, 18.870, 392.0, 19.7990
16.900377320, 18.870, 405.0, 20.1246
16.911243800, 18.870, 412.0, 20.2978
16.922110280, 18.870, 381.0, 19.5192
16.932976760, 18.870, 421.0, 20.5183
16.943843240, 18.870, 380.0, 19.4936
16.954709720, 18.870, 387.0, 19.6723
16.965576200, 18.870, 423.0, 20.5670
16.976442680, 18.870, 403.0, 20.0749
16.987309160, 18.870, 405.0, 20.1246
16.998175640, 18.870, 378.0, 19.4422
17.009042120, 18.870, 356.0, 18.8680
17.019908600, 18.870, 397.0, 19.9249
17.030775080, 18.870, 433.0, 20.8087
17.041641560, 18.870, 387.0, 19.6723
17.052508040, 18.870, 402.0, 20.0499
17.063374520, 18.870, 420.0, 20.4939
17.074241000, 18.870, 406.0, 20.1494
17.085107480, 18.870, 417.0, 20.4206
17.095973960, 18.870, 397.0, 19.9249
17.106840440, 18.870, 439.0, 20.9523
17.117706920, 18.870, 449.0, 21.1896
17.128573400, 18.870, 440.0, 20.9762
17.139439880, 18.870, 412.0, 20.2978
17.150306360, 18.870, 457.0, 21.3776
17.161172840, 18.870, 433.0, 20.8087
17.172039320, 18.870, 394.0, 19.8494
17.182905800, 18.870, 461.0, 21.4709
17.193772280, 18.870, 432.0, 20.7846
17.204638760, 18.870, 424.0, 20.5913
17.215505240, 18.870, 432.0, 20.7846
17.226371720, 18.870, 438.0, 20.9284
17.237238200, 18.870, 454.0, 21.3073
17.248104680, 18.870, 437.0, 20.9045
17.258971160, 18.870, 420.0, 20.4939
17.269837640, 18.870, 432.0, 20.7846
17.280704120, 18.870, 440.0, 20.9762
17.291570600, 18.870, 435.0, 20.8567
17.302437080, 18.870, 444.0, 21.0713
17.313303560, 18.870, 481.0, 21.9317
17.324170040, 18.870, 489.0, 22.1133
17.335036520, 18.870, 478.0, 21.8632
17.345903000, 18.870, 461.0, 21.4709
17.356769480, 18.870, 436.0, 20.8806
17.367635960, 18.870, 459.0, 21.4243
17.378502440, 18.870, 461.0, 21.4709
17.389368920, 18.870, 480.0, 21.9089
17.400235400, 18.870, 480.0, 21.9089
17.411101880, 18.870, 501.0, 22.3830
17.421968360, 18.870, 492.0, 22.1811
17.432834840, 18.870, 450.0, 21.2132
17.443701320, 18.870, 466.0, 21.5870
17.454567800, 18.870, 486.0, 22.0454
17.465434280, 18.870, 492.0, 22.1811
17.476300760, 18.870, 456.0, 21.3542
17.487167240, 18.870, 463.0, 21.5174
17.498033720, 18.870, 483.0, 21.9773
17.508900200, 18.870, 507.0, 22.5167
17.519766680, 18.870, 472.0, 21.7256
17.530633160, 18.870, 467.0, 21.6102
17.541499640, 18.870, 472.0, 21.7256
17.552366120, 18.870, 416.0, 20.3961
17.563232600, 18.870, 413.0, 20.3224
17.574099080, 18.870, 389.0, 19.7231
17.584965560, 18.870, 452.0, 21.2603
17.595832040, 18.870, 441.0, 21.0000
17.606698520, 18.870, 425.0, 20.6155
17.617565000, 18.870, 384.0, 19.5959
17.628431480, 18.870, 401.0, 20.0250
17.639297960, 18.870, 432.0, 20.7846
17.650164440, 18.870, 433.0, 20.8087
17.661030920, 18.870, 420.0, 20.4939
17.671897400, 18.870, 467.0, 21.6102
17.682763880, 18.870, 401.0, 20.0250
17.693630360, 18.870, 440.0, 20.9762
17.704496840, 18.870, 414.0, 20.3470
17.715363320, 18.870, 429.0, 20.7123
17.726229800, 18.870, 430.0, 20.7364
17.737096280, 18.870, 427.0, 20.6640
17.747962760, 18.870, 419.0, 20.4695
17.758829240, 18.870, 403.0, 20.0749
17.769695720, 18.870, 438.0, 20.9284
17.780562200, 18.870, 415.0, 20.3715
17.791428680, 18.870, 403.0, 20.0749
17.802295160, 18.870, 410.0, 20.2485
17.813161640, 18.870, 385.0, 19.6214
17.824028120, 18.870, 415.0, 20.3715
17.834894600, 18.870, 413.0, 20.3224
17.845761080, 18.870, 408.0, 20.1990
17.856627560, 18.870, 422.0, 20.5426
17.867494040, 18.870, 442.0, 21.0238
17.878360520, 18.870, 443.0, 21.0476
17.889227000, 18.870, 434.0, 20.8327
17.900093480, 18.870, 406.0, 20.1494
17.910959960, 18.870, 435.0, 20.8567
17.921826440, 18.870, 427.0, 20.6640
17.932692920, 18.870, 452.0, 21.2603
17.943559400, 18.870, 416.0, 20.3961
17.954425880, 18.870, 408.0, 20.1990
17.965292360, 18.870, 430.0, 20.7364
17.976158840, 18.870, 448.0, 21.1660
17.987025320, 18.870, 426.0, 20.6398
17.997891800, 18.870, 410.0, 20.2485
18.008758280, 18.870, 437.0, 20.9045
18.019624760, 18.870, 440.0, 20.9762
18.030491240, 18.870, 400.0, 20.0000
18.041357720, 18.870, 380.0, 19.4936
18.052224200, 18.870, 432.0, 20.7846
18.063090680, 18.870, 407.0, 20.1742
18.073957160, 18.870, 448.0, 21.1660
18.084823640, 18.870, 410.0, 20.2485
18.095690120, 18.870, 432.0, 20.7846
18.106556600, 18.870, 397.0, 19.9249
18.117423080, 18.870, 417.0, 20.4206
18.128289560, 18.870, 427.0, 20.6640
18.139156040, 18.870, 408.0, 20.1990
18.150022520, 18.870, 469.0, 21.6564
18.160889000, 18.870, 454.0, 21.3073
18.171755480, 18.870, 447.0, 21.1424
18.182621960, 18.870, 449.0, 21.1896
18.193488440, 18.870, 414.0, 20.3470
18.204354920, 18.870, 445.0, 21.0950
18.215221400, 18.870, 435.0, 20.8567
18.226087880, 18.870, 429.0, 20.7123
18.236954360, 18.870, 441.0, 21.0000
18.247820840, 18.870, 444.0, 21.0713
18.258687320, 18.870, 478.0, 21.8632
18.269553800, 18.870, 491.0, 22.1585
18.280420280, 18.870, 446.0, 21.1187
18.291286760, 18.870, 505.0, 22.4722
18.302153240, 18.870, 479.0, 21.8861
18.313019720, 18.870, 533.0, 23.0868
18.323886200, 18.870, 495.0, 22.2486
18.334752680, 18.870, 538.0, 23.1948
18.345619160, 18.870, 570.0, 23.8747
18.356485640, 18.870, 607.0, 24.6374
18.367352120, 18.870, 593.0, 24.3516
18.378218600, 18.870, 607.0, 24.6374
18.389085080, 18.870, 660.0, 25.6905
18.399951560, 18.870, 674.0, 25.9615
18.410818040, 18.870, 689.0, 26.2488
18.421684520, 18.870, 640.0, 25.2982
18.432551000, 18.870, 749.0, 27.3679
18.443417480, 18.870, 789.0, 28.0891
18.454283960, 18.870, 807.0, 28.4077
18.465150440, 18.870, 833.0, 28.8617
18.476016920, 18.870, 907.0, 30.1164
18.486883400, 18.870, 898.0, 29.9666
18.497749880, 18.870, 893.0, 29.8831
18.508616360, 18.870, 987.0, 31.4166
18.519482840, 18.870, 1093.0, 33.0606
18.530349320, 18.870, 1129.0, 33.6006
18.541215800, 18.870, 1071.0, 32.7261
18.552082280, 18.870, 1150.0, 33.9116
18.562948760, 18.870, 1111.0, 33.3317
18.573815240, 18.870, 1133.0, 33.6601
18.584681720, 18.870, 1205.0, 34.7131
18.595548200, 18.870, 1225.0, 35.0000
18.606414680, 18.870, 1161.0, 34.0735
18.617281160, 18.870, 1190.0, 34.4964
18.628147640, 18.870, 1200.0, 34.6410
18.639014120, 18.870, 1177.0, 34.3074
18.649880600, 18.870, 1065.0, 32.6343
18.660747080, 18.870, 1180.0, 34.3511
18.671613560, 18.870, 1147.0, 33.8674
18.682480040, 18.870, 1103.0, 33.2114
18.693346520, 18.870, 1051.0, 32.4191
18.704213000, 18.870, 1003.0, 31.6702
18.715079480, 18.870, 1012.0, 31.8119
18.725945960, 18.870, 946.0, 30.7571
18.736812440, 18.870, 974.0, 31.2090
18.747678920, 18.870, 883.0, 29.7153
18.758545400, 18.870, 875.0, 29.5804
18.769411880, 18.870, 863.0, 29.3769
18.780278360, 18.870, 836.0, 28.9137
18.791144840, 18.870, 836.0, 28.9137
18.802011320, 18.870, 801.0, 28.3019
18.812877800, 18.870, 840.0, 28.9828
18.823744280, 18.870, 749.0, 27.3679
18.834610760, 18.870, 735.0, 27.1109
18.845477240, 18.870, 718.0, 26.7955
18.856343720, 18.870, 727.0, 26.9629
18.867210200, 18.870, 690.0, 26.2679
18.878076680, 18.870, 674.0, 25.9615
18.888943160, 18.870, 681.0, 26.0960
18.899809640, 18.870, 668.0, 25.8457
18.910676120, 18.870, 608.0, 24.6577
18.921542600, 18.870, 644.0, 25.3772
18.932409080, 18.870, 611.0, 24.7184
18.943275560, 18.870, 591.0, 24.3105
18.954142040, 18.870, 638.0, 25.2587
18.965008520, 18.870, 593.0, 24.3516
18.975875000, 18.870, 535.0, 23.1301
18.986741480, 18.870, 567.0, 23.8118
18.997607960, 18.870, 525.0, 22.9129
19.008474440, 18.870, 571.0, 23.8956
19.019340920, 18.870, 545.0, 23.3452
19.030207400, 18.870, 551.0, 23.4734
19.041073880, 18.870, 514.0, 22.6716
19.051940360, 18.870, 494.0, 22.2261
19.062806840, 18.870, 481.0, 21.9317
19.073673320, 18.870, 521.0, 22.8254
19.084539800, 18.870, 496.0, 22.2711
19.095406280, 18.870, 504.0, 22.4499
19.106272760, 18.870, 440.0, 20.9762
19.117139240, 18.870, 515.0, 22.6936
19.128005720, 18.870, 468.0, 21.6333
19.138872200, 18.870, 501.0, 22.3830
19.149738680, 18.870, 472.0, 21.7256
19.160605160, 18.870, 524.0, 22.8910
19.171471640, 18.870, 504.0, 22.4499
19.182338120, 18.870, 520.0, 22.8035
19.193204600, 18.870, 504.0, 22.4499
19.204071080, 18.870, 492.0, 22.1811
19.214937560, 18.870, 526.0, 22.9347
19.225804040, 18.870, 528.0, 22.9783
19.236670520, 18.870, 487.0, 22.0681
19.247537000, 18.870, 529.0, 23.0000
19.258403480, 18.870, 501.0, 22.3830
19.269269960, 18.870, 540.0, 23.2379
19.280136440, 18.870, 587.0, 24.2281
19.291002920, 18.870, 535.0, 23.1301
19.301869400, 18.870, 564.0, 23.7487
19.312735880, 18.870, 560.0, 23.6643
19.323602360, 18.870, 563.0, 23.7276
19.334468840, 18.870, 580.0, 24.0832
19.345335320, 18.870, 549.0, 23.4307
19.356201800, 18.870, 615.0, 24.7992
19.367068280, 18.870, 540.0, 23.2379
19.377934760, 18.870, 641.0, 25.3180
19.388801240, 18.870, 599.0, 24.4745
19.399667720, 18.870, 607.0, 24.6374
19.410534200, 18.870, 627.0, 25.0400
19.421400680, 18.870, 664.0, 25.7682
19.432267160, 18.870, 660.0, 25.6905
19.443133640, 18.870, 675.0, 25.9808
19.454000120, 18.870, 610.0, 24.6982
19.464866600, 18.870, 689.0, 26.2488
19.475733080, 18.870, 652.0, 25.5343
19.486599560, 18.870, 618.0, 24.8596
19.497466040, 18.870, 632.0, 25.1396
19.508332520, 18.870, 622.0, 24.9399
19.519199000, 18.870, 599.0, 24.4745
19.530065480, 18.870, 588.0, 24.2487
19.540931960, 18.870, 577.0, 24.0208
19.551798440, 18.870, 602.0, 24.5357
19.562664920, 18.870, 655.0, 25.5930
19.573531400, 18.870, 594.0, 24.3721
19.584397880, 18.870, 566.0, 23.7908
19.595264360, 18.870, 601.0, 24.5153
19.606130840, 18.870, 559.0, 23.6432
19.616997320, 18.870, 529.0, 23.0000
19.627863800, 18.870, 539.0, 23.2164
19.638730280, 18.870, 605.0, 24.5967
19.649596760, 18.870, 556.0, 23.5797
19.660463240, 18.870, 516.0, 22.7156
19.671329720, 18.870, 542.0, 23.2809
19.682196200, 18.870, 546.0, 23.3666
19.693062680, 18.870, 543.0, 23.3024
19.703929160, 18.870, 528.0, 22.9783
19.714795640, 18.870, 497.0, 22.2935
19.725662120, 18.870, 535.0, 23.1301
19.736528600, 18.870, 500.0, 22.3607
19.747395080, 18.870, 480.0, 21.9089
19.758261560, 18.870, 462.0, 21.4942
19.769128040, 18.870, 524.0, 22.8910
19.779994520, 18.870, 494.0, 22.2261
19.790861000, 18.870, 527.0, 22.9565
19.801727480, 18.870, 505.0, 22.4722
19.812593960, 18.870, 425.0, 20.6155
19.823460440, 18.870, 488.0, 22.0907
19.834326920, 18.870, 430.0, 20.7364
19.845193400, 18.870, 475.0, 21.7945
19.856059880, 18.870, 428.0, 20.6882
19.866926360, 18.870, 446.0, 21.1187
19.877792840, 18.870, 435.0, 20.8567
19.888659320, 18.870, 495.0, 22.2486
19.899525800, 18.870, 406.0, 20.1494
19.910392280, 18.870, 416.0, 20.3961
19.921258760, 18.870, 445.0, 21.0950
19.932125240, 18.870, 467.0, 21.6102
19.942991720, 18.870, 482.0, 21.9545
19.953858200, 18.870, 481.0, 21.9317
19.964724680, 18.870, 468.0, 21.6333
19.975591160, 18.870, 481.0, 21.9317
19.986457640, 18.870, 460.0, 21.4476
19.997324120, 18.870, 393.0, 19.8242
20.008190600, 18.870, 463.0, 21.5174
20.019057080, 18.870, 448.0, 21.1660
20.029923560, 18.870, 475.0, 21.7945
20.040790040, 18.870, 457.0, 21.3776
20.051656520, 18.870, 422.0, 20.5426
20.062523000, 18.870, 480.0, 21.9089
20.073389480, 18.870, 415.0, 20.3715
20.084255960, 18.870, 446.0, 21.1187
20.095122440, 18.870, 419.0, 20.4695
20.105988920, 18.870, 454.0, 21.3073
20.116855400, 18.870, 452.0, 21.2603
20.127721880, 18.870, 456.0, 21.3542
20.138588360, 18.870, 483.0, 21.9773
20.149454840, 18.870, 468.0, 21.6333
20.160321320, 18.870, 466.0, 21.5870
20.171187800, 18.870, 467.0, 21.6102
20.182054280, 18.870, 482.0, 21.9545
20.192920760, 18.870, 482.0, 21.9545
20.203787240, 18.870, 506.0, 22.4944
20.214653720, 18.870, 463.0, 21.5174
20.225520200, 18.870, 516.0, 22.7156
20.236386680, 18.870, 469.0, 21.6564
20.247253160, 18.870, 457.0, 21.3776
20.258119640, 18.870, 469.0, 21.6564
20.268986120, 18.870, 504.0, 22.4499
20.279852600, 18.870, 527.0, 22.9565
20.290719080, 18.870, 536.0, 23.1517
20.301585560, 18.870, 519.0, 22.7816
20.312452040, 18.870, 483.0, 21.9773
20.323318520, 18.870, 529.0, 23.0000
20.334185000, 18.870, 483.0, 21.9773
20.345051480, 18.870, 478.0, 21.8632
20.355917960, 18.870, 511.0, 22.6053
20.366784440, 18.870, 494.0, 22.2261
20.377650920, 18.870, 507.0, 22.5167
20.388517400, 18.870, 533.0, 23.0868
20.399383880, 18.870, 508.0, 22.5389
20.410250360, 18.870, 530.0, 23.0217
20.421116840, 18.870, 559.0, 23.6432
20.431983320, 18.870, 480.0, 21.9089
20.442849800, 18.870, 533.0, 23.0868
20.453716280, 18.870, 477.0, 21.8403
20.464582760, 18.870, 512.0, 22.6274
20.475449240, 18.870, 498.0, 22.3159
20.486315720, 18.870, 538.0, 23.1948
20.497182200, 18.870, 452.0, 21.2603
20.508048680, 18.870, 497.0, 22.2935
20.518915160, 18.870, 516.0, 22.7156
20.529781640, 18.870, 499.0, 22.3383
20.540648120, 18.870, 507.0, 22.5167
20.551514600, 18.870, 517.0, 22.7376
20.562381080, 18.870, 515.0, 22.6936
20.573247560, 18.870, 466.0, 21.5870
20.584114040, 18.870, 498.0, 22.3159
20.594980520, 18.870, 464.0, 21.5407
20.605847000, 18.870, 472.0, 21.7256
20.616713480, 18.870, 489.0, 22.1133
20.627579960, 18.870, 506.0, 22.4944
20.638446440, 18.870, 521.0, 22.8254
20.649312920, 18.870, 525.0, 22.9129
20.660179400, 18.870, 493.0, 22.2036
20.671045880, 18.870, 498.0, 22.3159
20.681912360, 18.870, 542.0, 23.2809
20.692778840, 18.870, 499.0, 22.3383
20.703645320, 18.870, 492.0, 22.1811
20.714511800, 18.870, 526.0, 22.9347
20.725378280, 18.870, 467.0, 21.6102
20.736244760, 18.870, 504.0, 22.4499
20.747111240, 18.870, 456.0, 21.3542
20.757977720, 18.870, 500.0, 22.3607
20.768844200, 18.870, 475.0, 21.7945
20.779710680, 18.870, 455.0, 21.3307
20.790577160, 18.870, 515.0, 22.6936
20.801443640, 18.870, 477.0, 21.8403
20.812310120, 18.870, 478.0, 21.8632
20.823176600, 18.870, 500.0, 22.3607
20.834043080, 18.870, 486.0, 22.0454
20.844909560, 18.870, 484.0, 22.0000
20.855776040, 18.870, 444.0, 21.0713
20.866642520, 18.870, 502.0, 22.4054
20.877509000, 18.870, 465.0, 21.5639
20.888375480, 18.870, 485.0, 22.0227
20.899241960, 18.870, 503.0, 22.4277
20.910108440, 18.870, 490.0, 22.1359
20.920974920, 18.870, 527.0, 22.9565
20.931841400, 18.870, 484.0, 22.0000
20.942707880, 18.870, 523.0, 22.8692
20.953574360, 18.870, 522.0, 22.8473
20.964440840, 18.870, 509.0, 22.5610
20.975307320, 18.870, 514.0, 22.6716
20.986173800, 18.870, 458.0, 21.4009
20.997040280, 18.870, 480.0, 21.9089
21.007906760, 18.870, 527.0, 22.9565
21.018773240, 18.870, 470.0, 21.6795
21.029639720, 18.870, 532.0, 23.0651
21.040506200, 18.870, 522.0, 22.8473
21.051372680, 18.870, 541.0, 23.2594
21.062239160, 18.870, 486.0, 22.0454
21.073105640, 18.870, 512.0, 22.6274
21.083972120, 18.870, 515.0, 22.6936
21.094838600, 18.870, 553.0, 23.5160
21.105705080, 18.870, 520.0, 22.8035
21.116571560, 18.870, 519.0, 22.7816
21.127438040, 18.870, 489.0, 22.1133
21.138304520, 18.870, 514.0, 22.6716
21.149171000, 18.870, 515.0, 22.6936
21.160037480, 18.870, 501.0, 22.3830
21.170903960, 18.870, 561.0, 23.6854
21.181770440, 18.870, 530.0, 23.0217
21.192636920, 18.870, 527.0, 22.9565
21.203503400, 18.870, 551.0, 23.4734
21.214369880, 18.870, 564.0, 23.7487
21.225236360, 18.870, 571.0, 23.8956
21.236102840, 18.870, 541.0, 23.2594
21.246969320, 18.870, 583.0, 24.1454
21.257835800, 18.870, 559.0, 23.6432
21.268702280, 18.870, 604.0, 24.5764
21.279568760, 18.870, 616.0, 24.8193
21.290435240, 18.870, 653.0, 25.5539
21.301301720, 18.870, 658.0, 25.6515
21.312168200, 18.870, 669.0, 25.8650
21.323034680, 18.870, 641.0, 25.3180
21.333901160, 18.870, 647.0, 25.4362
21.344767640, 18.870, 694.0, 26.3439
21.355634120, 18.870, 748.0, 27.3496
21.366500600, 18.870, 674.0, 25.9615
21.377367080, 18.870, 726.0, 26.9444
21.388233560, 18.870, 820.0, 28.6356
21.399100040, 18.870, 774.0, 27.8209
21.409966520, 18.870, 842.0, 29.0172
21.420833000, 18.870, 868.0, 29.4618
21.431699480, 18.870, 918.0, 30.2985
21.442565960, 18.870, 1032.0, 32.1248
21.453432440, 18.870, 1103.0, 33.2114
21.464298920, 18.870, 1154.0, 33.9706
21.475165400, 18.870, 1260.0, 35.4965
21.486031880, 18.870, 1273.0, 35.6791
21.496898360, 18.870, 1440.0, 37.9473
21.507764840, 18.870, 1604.0, 40.0500
21.518631320, 18.870, 1612.0, 40.1497
21.529497800, 18.870, 1800.0, 42.4264
21.540364280, 18.870, 1856.0, 43.0813
21.551230760, 18.870, 2067.0, 45.4643
21.562097240, 18.870, 2202.0, 46.9255
21.572963720, 18.870, 2415.0, 49.1426
21.583830200, 18.870, 2538.0, 50.3786
21.594696680, 18.870, 2652.0, 51.4976
21.605563160, 18.870, 2766.0, 52.5928
21.616429640, 18.870, 3039.0, 55.1271
21.627296120, 18.870, 3015.0, 54.9090
21.638162600, 18.870, 3172.0, 56.3205
21.649029080, 18.870, 3238.0, 56.9034
21.659895560, 18.870, 3423.0, 58.5064
21.670762040, 18.870, 3518.0, 59.3127
21.681628520, 18.870, 3616.0, 60.1332
21.692495000, 18.870, 3545.0, 59.5399
21.703361480, 18.870, 3618.0, 60.1498
21.714227960, 18.870, 3700.0, 60.8276
21.725094440, 18.870, 3632.0, 60.2661
21.735960920, 18.870, 3570.0, 59.7495
21.746827400, 18.870, 3651.0, 60.4235
21.757693880, 18.870, 3468.0, 58.8897
21.768560360, 18.870, 3479.0, 58.9830
21.779426840, 18.870, 3280.0, 57.2713
21.790293320, 18.870, 3255.0, 57.0526
21.801159800, 18.870, 3062.0, 55.3353
21.812026280, 18.870, 3072.0, 55.4256
21.822892760, 18.870, 2945.0, 54.2679
21.833759240, 18.870, 2855.0, 53.4322
21.844625720, 18.870, 2769.0, 52.6213
21.855492200, 18.870, 2756.0, 52.4976
21.866358680, 18.870, 2695.0, 51.9134
21.877225160, 18.870, 2614.0, 51.1273
21.888091640, 18.870, 2489.0, 49.8899
21.898958120, 18.870, 2510.0, 50.0999
21.909824600, 18.870, 2401.0, 49.0000
21.920691080, 18.870, 2266.0, 47.6025
21.931557560, 18.870, 2355.0, 48.5283
21.942424040, 18.870, 2244.0, 47.3709
21.953290520, 18.870, 2148.0, 46.3465
21.964157000, 18.870, 2060.0, 45.3872
21.975023480, 18.870, 2037.0, 45.1331
21.985889960, 18.870, 2040.0, 45.1664
21.996756440, 18.870, 1954.0, 44.2041
22.007622920, 18.870, 1922.0, 43.8406
22.018489400, 18.870, 1894.0, 43.5201
22.029355880, 18.870, 1885.0, 43.4166
22.040222360, 18.870, 1814.0, 42.5911
22.051088840, 18.870, 1727.0, 41.5572
22.061955320, 18.870, 1697.0, 41.1947
22.072821800, 18.870, 1707.0, 41.3159
22.083688280, 18.870, 1619.0, 40.2368
22.094554760, 18.870, 1556.0, 39.4462
22.105421240, 18.870, 1623.0, 40.2865
22.116287720, 18.870, 1496.0, 38.6782
22.127154200, 18.870, 1449.0, 38.0657
22.138020680, 18.870, 1472.0, 38.3667
22.148887160, 18.870, 1451.0, 38.0920
22.159753640, 18.870, 1383.0, 37.1887
22.170620120, 18.870, 1359.0, 36.8646
22.181486600, 18.870, 1334.0, 36.5240
22.192353080, 18.870, 1357.0, 36.8375
22.203219560, 18.870, 1297.0, 36.0139
22.214086040, 18.870, 1253.0, 35.3977
22.224952520, 18.870, 1219.0, 34.9142
22.235819000, 18.870, 1168.0, 34.1760
22.246685480, 18.870, 1080.0, 32.8634
22.257551960, 18.870, 1115.0, 33.3916
22.268418440, 18.870, 1079.0, 32.8481
22.279284920, 18.870, 1017.0, 31.8904
22.290151400, 18.870, 954.0, 30.8869
22.301017880, 18.870, 920.0, 30.3315
22.311884360, 18.870, 964.0, 31.0483
22.322750840, 18.870, 924.0, 30.3974
22.333617320, 18.870, 916.0, 30.2655
22.344483800, 18.870, 873.0, 29.5466
22.355350280, 18.870, 849.0, 29.1376
22.366216760, 18.870, 816.0, 28.5657
22.377083240, 18.870, 794.0, 28.1780
22.387949720, 18.870, 742.0, 27.2397
22.398816200, 18.870, 764.0, 27.6405
22.409682680, 18.870, 733.0, 27.0740
22.420549160, 18.870, 728.0, 26.9815
22.431415640, 18.870, 723.0, 26.8887
22.442282120, 18.870, 674.0, 25.9615
22.453148600, 18.870, 700.0, 26.4575
22.464015080, 18.870, 681.0, 26.0960
22.474881560, 18.870, 616.0, 24.8193
22.485748040, 18.870, 648.0, 25.4558
22.496614520, 18.870, 593.0, 24.3516
22.507481000, 18.870, 623.0, 24.9600
22.518347480, 18.870, 601.0, 24.5153
22.529213960, 18.870, 600.0, 24.4949
22.540080440, 18.870, 603.0, 24.5561
22.550946920, 18.870, 582.0, 24.1247
22.561813400, 18.870, 573.0, 23.9374
22.572679880, 18.870, 599.0, 24.4745
22.583546360, 18.870, 591.0, 24.3105
22.594412840, 18.870, 582.0, 24.1247
22.605279320, 18.870, 550.0, 23.4521
22.616145800, 18.870, 591.0, 24.3105
22.627012280, 18.870, 600.0, 24.4949
22.637878760, 18.870, 588.0, 24.2487
22.648745240, 18.870, 585.0, 24.1868
22.659611720, 18.870, 648.0, 25.4558
22.670478200, 18.870, 645.0, 25.3969
22.681344680, 18.870, 664.0, 25.7682
22.692211160, 18.870, 669.0, 25.8650
22.703077640, 18.870, 685.0, 26.1725
22.713944120, 18.870, 664.0, 25.7682
22.724810600, 18.870, 703.0, 26.5141
22.735677080, 18.870, 724.0, 26.9072
22.746543560, 18.870, 742.0, 27.2397
22.757410040, 18.870, 748.0, 27.3496
22.768276520, 18.870, 749.0, 27.3679
22.779143000, 18.870, 846.0, 29.0861
22.790009480, 18.870, 802.0, 28.3196
22.800875960, 18.870, 819.0, 28.6182
22.811742440, 18.870, 842.0, 29.0172
22.822608920, 18.870, 800.0, 28.2843
22.833475400, 18.870, 847.0, 29.1033
22.844341880, 18.870, 844.0, 29.0517
22.855208360, 18.870, 766.0, 27.6767
22.866074840, 18.870, 822.0, 28.6705
22.876941320, 18.870, 851.0, 29.1719
22.887807800, 18.870, 834.0, 28.8791
22.898674280, 18.870, 841.0, 29.0000
22.909540760, 18.870, 775.0, 27.8388
22.920407240, 18.870, 797.0, 28.2312
22.931273720, 18.870, 754.0, 27.4591
22.942140200, 18.870, 836.0, 28.9137
22.953006680, 18.870, 773.0, 27.8029
22.963873160, 18.870, 807.0, 28.4077
22.974739640, 18.870, 761.0, 27.5862
22.985606120, 18.870, 752.0, 27.4226
22.996472600, 18.870, 748.0, 27.3496
23.007339080, 18.870, 750.0, 27.3861
23.018205560, 18.870, 673.0, 25.9422
23.029072040, 18.870, 693.0, 26.3249
23.039938520, 18.870, 673.0, 25.9422
23.050805000, 18.870, 688.0, 26.2298
23.061671480, 18.870, 648.0, 25.4558
23.072537960, 18.870, 688.0, 26.2298
23.083404440, 18.870, 641.0, 25.3180
23.094270920, 18.870, 676.0, 26.0000
23.105137400, 18.870, 637.0, 25.2389
23.116003880, 18.870, 642.0, 25.3377
23.126870360, 18.870, 670.0, 25.8844
23.137736840, 18.870, 622.0, 24.9399
23.148603320, 18.870, 609.0, 24.6779
23.159469800, 18.870, 644.0, 25.3772
23.170336280, 18.870, 607.0, 24.6374
23.181202760, 18.870, 647.0, 25.4362
23.192069240, 18.870, 633.0, 25.1595
23.202935720, 18.870, 639.0, 25.2784
23.213802200, 18.870, 604.0, 24.5764
23.224668680, 18.870, 579.0, 24.0624
23.235535160, 18.870, 582.0, 24.1247
23.246401640, 18.870, 612.0, 24.7386
23.257268120, 18.870, 588.0, 24.2487
23.268134600, 18.870, 640.0, 25.2982
23.279001080, 18.870, 603.0, 24.5561
23.289867560, 18.870, 616.0, 24.8193
23.300734040, 18.870, 636.0, 25.2190
23.311600520, 18.870, 679.0, 26.0576
23.322467000, 18.870, 688.0, 26.2298
23.333333480, 18.870, 725.0, 26.9258
23.344199960, 18.870, 791.0, 28.1247
23.355066440, 18.870, 797.0, 28.2312
23.365932920, 18.870, 800.0, 28.2843
23.376799400, 18.870, 829.0, 28.7924
23.387665880, 18.870, 899.0, 29.9833
23.398532360, 18.870, 885.0, 29.7489
23.409398840, 18.870, 953.0, 30.8707
23.420265320, 18.870, 1025.0, 32.0156
23.431131800, 18.870, 968.0, 31.1127
23.441998280, 18.870, 1035.0, 32.1714
23.452864760, 18.870, 1064.0, 32.6190
23.463731240, 18.870, 1099.0, 33.1512
23.474597720, 18.870, 1171.0, 34.2199
23.485464200, 18.870, 1131.0, 33.6303
23.496330680, 18.870, 1274.0, 35.6931
23.507197160, 18.870, 1235.0, 35.1426
23.518063640, 18.870, 1221.0, 34.9428
23.528930120, 18.870, 1234.0, 35.1283
23.539796600, 18.870, 1307.0, 36.1525
23.550663080, 18.870, 1220.0, 34.9285
23.561529560, 18.870, 1288.0, 35.8887
23.572396040, 18.870, 1351.0, 36.7560
23.583262520, 18.870, 1377.0, 37.1080
23.594129000, 18.870, 1306.0, 36.1386
23.604995480, 18.870, 1349.0, 36.7287
23.615861960, 18.870, 1322.0, 36.3593
23.626728440, 18.870, 1312.0, 36.2215
23.637594920, 18.870, 1280.0, 35.7771
23.648461400, 18.870, 1344.0, 36.6606
23.659327880, 18.870, 1225.0, 35.0000
23.670194360, 18.870, 1305.0, 36.1248
23.681060840, 18.870, 1286.0, 35.8608
23.691927320, 18.870, 1259.0, 35.4824
23.702793800, 18.870, 1227.0, 35.0286
23.713660280, 18.870, 1290.0, 35.9166
23.724526760, 18.870, 1297.0, 36.0139
23.735393240, 18.870, 1400.0, 37.4166
23.746259720, 18.870, 1344.0, 36.6606
23.757126200, 18.870, 1369.0, 37.0000
23.767992680, 18.870, 1375.0, 37.0810
23.778859160, 18.870, 1337.0, 36.5650
23.789725640, 18.870, 1298.0, 36.0278
23.800592120, 18.870, 1382.0, 37.1753
23.811458600, 18.870, 1355.0, 36.8103
23.822325080, 18.870, 1323.0, 36.3731
23.833191560, 18.870, 1329.0, 36.4555
23.844058040, 18.870, 1337.0, 36.5650
23.854924520, 18.870, 1343.0, 36.6470
23.865791000, 18.870, 1352.0, 36.7696
23.876657480, 18.870, 1312.0, 36.2215
23.887523960, 18.870, 1356.0, 36.8239
23.898390440, 18.870, 1239.0, 35.1994
23.909256920, 18.870, 1252.0, 35.3836
23.920123400, 18.870, 1223.0, 34.9714
23.930989880, 18.870, 1243.0, 35.2562
23.941856360, 18.870, 1278.0, 35.7491
23.952722840, 18.870, 1253.0, 35.3977
23.963589320, 18.870, 1235.0, 35.1426
23.974455800, 18.870, 1196.0, 34.5832
23.985322280, 18.870, 1258.0, 35.4683
23.996188760, 18.870, 1132.0, 33.6452
24.007055240, 18.870, 1181.0, 34.3657
24.017921720, 18.870, 1146.0, 33.8526
24.028788200, 18.870, 1097.0, 33.1210
24.039654680, 18.870, 1134.0, 33.6749
24.050521160, 18.870, 1077.0, 32.8177
24.061387640, 18.870, 1119.0, 33.4515
24.072254120, 18.870, 1083.0, 32.9090
24.083120600, 18.870, 1142.0, 33.7935
24.093987080, 18.870, 996.0, 31.5595
24.104853560, 18.870, 1045.0, 32.3265
24.115720040, 18.870, 1035.0, 32.1714
24.126586520, 18.870, 1032.0, 32.1248
24.137453000, 18.870, 987.0, 31.4166
24.148319480, 18.870, 1026.0, 32.0312
24.159185960, 18.870, 955.0, 30.9031
24.170052440, 18.870, 987.0, 31.4166
24.180918920, 18.870, 880.0, 29.6648
24.191785400, 18.870, 912.0, 30.1993
24.202651880, 18.870, 848.0, 29.1204
24.213518360, 18.870, 854.0, 29.2233
24.224384840, 18.870, 804.0, 28.3549
24.235251320, 18.870, 833.0, 28.8617
24.246117800, 18.870, 750.0, 27.3861
24.256984280, 18.870, 747.0, 27.3313
24.267850760, 18.870, 738.0, 27.1662
24.278717240, 18.870, 679.0, 26.0576
24.289583720, 18.870, 687.0, 26.2107
24.300450200, 18.870, 683.0, 26.1343
24.311316680, 18.870, 659.0, 25.6710
24.322183160, 18.870, 686.0, 26.1916
24.333049640, 18.870, 659.0, 25.6710
24.343916120, 18.870, 629.0, 25.0799
24.354782600, 18.870, 599.0, 24.4745
24.365649080, 18.870, 622.0, 24.9399
24.376515560, 18.870, 616.0, 24.8193
24.387382040, 18.870, 546.0, 23.3666
24.398248520, 18.870, 595.0, 24.3926
24.409115000, 18.870, 576.0, 24.0000
24.419981480, 18.870, 514.0, 22.6716
24.430847960, 18.870, 525.0, 22.9129
24.441714440, 18.870, 498.0, 22.3159
24.452580920, 18.870, 533.0, 23.0868
24.463447400, 18.870, 518.0, 22.7596
24.474313880, 18.870, 563.0, 23.7276
24.485180360, 18.870, 493.0, 22.2036
24.496046840, 18.870, 483.0, 21.9773
24.506913320, 18.870, 455.0, 21.3307
24.517779800, 18.870, 516.0, 22.7156
24.528646280, 18.870, 499.0, 22.3383
24.539512760, 18.870, 481.0, 21.9317
24.550379240, 18.870, 507.0, 22.5167
24.561245720, 18.870, 481.0, 21.9317
24.572112200, 18.870, 480.0, 21.9089
24.582978680, 18.870, 506.0, 22.4944
24.593845160, 18.870, 484.0, 22.0000
24.604711640, 18.870, 496.0, 22.2711
24.615578120, 18.870, 502.0, 22.4054
24.626444600, 18.870, 505.0, 22.4722
24.637311080, 18.870, 521.0, 22.8254
24.648177560, 18.870, 510.0, 22.5832
24.659044040, 18.870, 474.0, 21.7715
24.669910520, 18.870, 501.0, 22.3830
24.680777000, 18.870, 473.0, 21.7486
24.691643480, 18.870, 456.0, 21.3542
24.702509960, 18.870, 434.0, 20.8327
24.713376440, 18.870, 435.0, 20.8567
24.724242920, 18.870, 422.0, 20.5426
24.735109400, 18.870, 460.0, 21.4476
24.745975880, 18.870, 505.0, 22.4722
24.756842360, 18.870, 480.0, 21.9089
24.767708840, 18.870, 528.0, 22.9783
24.778575320, 18.870, 483.0, 21.9773
24.789441800, 18.870, 482.0, 21.9545
24.800308280, 18.870, 477.0, 21.8403
24.811174760, 18.870, 515.0, 22.6936
24.822041240, 18.870, 536.0, 23.1517
24.832907720, 18.870, 515.0, 22.6936
24.843774200, 18.870, 540.0, 23.2379
24.854640680, 18.870, 559.0, 23.6432
24.865507160, 18.870, 548.0, 23.4094
24.876373640, 18.870, 552.0, 23.4947
24.887240120, 18.870, 611.0, 24.7184
24.898106600, 18.870, 522.0, 22.8473
24.908973080, 18.870, 596.0, 24.4131
24.919839560, 18.870, 610.0, 24.6982
24.930706040, 18.870, 628.0, 25.0599
24.941572520, 18.870, 610.0, 24.6982
24.952439000, 18.870, 641.0, 25.3180
24.963305480, 18.870, 638.0, 25.2587
24.974171960, 18.870, 673.0, 25.9422
24.985038440, 18.870, 743.0, 27.2580
24.995904920, 18.870, 746.0, 27.3130
25.006771400, 18.870, 697.0, 26.4008
25.017637880, 18.870, 810.0, 28.4605
25.028504360, 18.870, 826.0, 28.7402
25.039370840, 18.870, 843.0, 29.0345
25.050237320, 18.870, 846.0, 29.0861
25.061103800, 18.870, 862.0, 29.3598
25.071970280, 18.870, 956.0, 30.9192
25.082836760, 18.870, 1034.0, 32.1559
25.093703240, 18.870, 985.0, 31.3847
25.104569720, 18.870, 1023.0, 31.9844
25.115436200, 18.870, 1080.0, 32.8634
25.126302680, 18.870, 1094.0, 33.0757
25.137169160, 18.870, 1162.0, 34.0881
25.148035640, 18.870, 1150.0, 33.9116
25.158902120, 18.870, 1169.0, 34.1906
25.169768600, 18.870, 1203.0, 34.6843
25.180635080, 18.870, 1224.0, 34.9857
25.191501560, 18.870, 1204.0, 34.6987
25.202368040, 18.870, 1265.0, 35.5668
25.213234520, 18.870, 1314.0, 36.2491
25.224101000, 18.870, 1285.0, 35.8469
25.234967480, 18.870, 1258.0, 35.4683
25.245833960, 18.870, 1275.0, 35.7071
25.256700440, 18.870, 1327.0, 36.4280
25.267566920, 18.870, 1324.0, 36.3868
25.278433400, 18.870, 1347.0, 36.7015
25.289299880, 18.870, 1324.0, 36.3868
25.300166360, 18.870, 1385.0, 37.2156
25.311032840, 18.870, 1353.0, 36.7831
25.321899320, 18.870, 1277.0, 35.7351
25.332765800, 18.870, 1308.0, 36.1663
25.343632280, 18.870, 1219.0, 34.9142
25.354498760, 18.870, 1300.0, 36.0555
25.365365240, 18.870, 1291.0, 35.9305
25.376231720, 18.870, 1287.0, 35.8748
25.387098200, 18.870, 1202.0, 34.6699
25.397964680, 18.870, 1193.0, 34.5398
25.408831160, 18.870, 1103.0, 33.2114
25.419697640, 18.870, 1049.0, 32.3883
25.430564120, 18.870, 1048.0, 32.3728
25.441430600, 18.870, 1055.0, 32.4808
25.452297080, 18.870, 1047.0, 32.3574
25.463163560, 18.870, 1039.0, 32.2335
25.474030040, 18.870, 959.0, 30.9677
25.484896520, 18.870, 914.0, 30.2324
25.495763000, 18.870, 957.0, 30.9354
25.506629480, 18.870, 916.0, 30.2655
25.517495960, 18.870, 860.0, 29.3258
25.528362440, 18.870, 812.0, 28.4956
25.539228920, 18.870, 855.0, 29.2404
25.550095400, 18.870, 851.0, 29.1719
25.560961880, 18.870, 764.0, 27.6405
25.571828360, 18.870, 795.0, 28.1957
25.582694840, 18.870, 737.0, 27.1477
25.593561320, 18.870, 683.0, 26.1343
25.604427800, 18.870, 712.0, 26.6833
25.615294280, 18.870, 704.0, 26.5330
25.626160760, 18.870, 648.0, 25.4558
25.637027240, 18.870, 691.0, 26.2869
25.647893720, 18.870, 625.0, 25.0000
25.658760200, 18.870, 632.0, 25.1396
25.669626680, 18.870, 622.0, 24.9399
25.680493160, 18.870, 593.0, 24.3516
25.691359640, 18.870, 606.0, 24.6171
25.702226120, 18.870, 642.0, 25.3377
25.713092600, 18.870, 628.0, 25.0599
25.723959080, 18.870, 574.0, 23.9583
25.734825560, 18.870, 598.0, 24.4540
25.745692040, 18.870, 619.0, 24.8797
25.756558520, 18.870, 647.0, 25.4362
25.767425000, 18.870, 539.0, 23.2164
25.778291480, 18.870, 597.0, 24.4336
25.789157960, 18.870, 567.0, 23.8118
25.800024440, 18.870, 556.0, 23.5797
25.810890920, 18.870, 593.0, 24.3516
25.821757400, 18.870, 600.0, 24.4949
25.832623880, 18.870, 580.0, 24.0832
25.843490360, 18.870, 625.0, 25.0000
25.854356840, 18.870, 576.0, 24.0000
25.865223320, 18.870, 608.0, 24.6577
25.876089800, 18.870, 604.0, 24.5764
25.886956280, 18.870, 612.0, 24.7386
25.897822760, 18.870, 637.0, 25.2389
25.908689240, 18.870, 615.0, 24.7992
25.919555720, 18.870, 637.0, 25.2389
25.930422200, 18.870, 639.0, 25.2784
25.941288680, 18.870, 646.0, 25.4165
25.952155160, 18.870, 651.0, 25.5147
25.963021640, 18.870, 656.0, 25.6125
25.973888120, 18.870, 600.0, 24.4949
25.984754600, 18.870, 646.0, 25.4165
25.995621080, 18.870, 693.0, 26.3249
26.006487560, 18.870, 651.0, 25.5147
26.017354040, 18.870, 701.0, 26.4764
26.028220520, 18.870, 672.0, 25.9230
26.039087000, 18.870, 644.0, 25.3772
26.049953480, 18.870, 694.0, 26.3439
26.060819960, 18.870, 663.0, 25.7488
26.071686440, 18.870, 670.0, 25.8844
26.082552920, 18.870, 690.0, 26.2679
26.093419400, 18.870, 657.0, 25.6320
26.104285880, 18.870, 676.0, 26.0000
26.115152360, 18.870, 662.0, 25.7294
26.126018840, 18.870, 658.0, 25.6515
26.136885320, 18.870, 689.0, 26.2488
26.147751800, 18.870, 655.0, 25.5930
26.158618280, 18.870, 692.0, 26.3059
26.169484760, 18.870, 713.0, 26.7021
26.180351240, 18.870, 696.0, 26.3818
26.191217720, 18.870, 783.0, 27.9821
26.202084200, 18.870, 766.0, 27.6767
26.212950680, 18.870, 715.0, 26.7395
26.223817160, 18.870, 795.0, 28.1957
26.234683640, 18.870, 799.0, 28.2666
26.245550120, 18.870, 886.0, 29.7658
26.256416600, 18.870, 855.0, 29.2404
26.267283080, 18.870, 956.0, 30.9192
26.278149560, 18.870, 961.0, 31.0000
26.289016040, 18.870, 1055.0, 32.4808
26.299882520, 18.870, 1063.0, 32.6037
26.310749000, 18.870, 1162.0, 34.0881
26.321615480, 18.870, 1233.0, 35.1141
26.332481960, 18.870, 1312.0, 36.2215
26.343348440, 18.870, 1365.0, 36.9459
26.354214920, 18.870, 1441.0, 37.9605
26.365081400, 18.870, 1438.0, 37.9210
26.375947880, 18.870, 1450.0, 38.0789
26.386814360, 18.870, 1617.0, 40.2119
26.397680840, 18.870, 1632.0, 40.3980
26.408547320, 18.870, 1587.0, 39.8372
26.419413800, 18.870, 1742.0, 41.7373
26.430280280, 18.870, 1769.0, 42.0595
26.441146760, 18.870, 1764.0, 42.0000
26.452013240, 18.870, 1759.0, 41.9404
26.462879720, 18.870, 1776.0, 42.1426
26.473746200, 18.870, 1792.0, 42.3320
26.484612680, 18.870, 1761.0, 41.9643
26.495479160, 18.870, 1770.0, 42.0714
26.506345640, 18.870, 1739.0, 41.7013
26.517212120, 18.870, 1637.0, 40.4599
26.528078600, 18.870, 1631.0, 40.3856
26.538945080, 18.870, 1577.0, 39.7115
26.549811560, 18.870, 1485.0, 38.5357
26.560678040, 18.870, 1451.0, 38.0920
26.571544520, 18.870, 1482.0, 38.4968
26.582411000, 18.870, 1367.0, 36.9730
26.593277480, 18.870, 1355.0, 36.8103
26.604143960, 18.870, 1265.0, 35.5668
26.615010440, 18.870, 1215.0, 34.8569
26.625876920, 18.870, 1180.0, 34.3511
26.636743400, 18.870, 1114.0, 33.3766
26.647609880, 18.870, 1078.0, 32.8329
26.658476360, 18.870, 1118.0, 33.4365
26.669342840, 18.870, 1005.0, 31.7017
26.680209320, 18.870, 950.0, 30.8221
26.691075800, 18.870, 993.0, 31.5119
26.701942280, 18.870, 887.0, 29.7825
26.712808760, 18.870, 805.0, 28.3725
26.723675240, 18.870, 793.0, 28.1603
26.734541720, 18.870, 746.0, 27.3130
26.745408200, 18.870, 773.0, 27.8029
26.756274680, 18.870, 728.0, 26.9815
26.767141160, 18.870, 657.0, 25.6320
26.778007640, 18.870, 642.0, 25.3377
26.788874120, 18.870, 632.0, 25.1396
26.799740600, 18.870, 584.0, 24.1661
26.810607080, 18.870, 631.0, 25.1197
26.821473560, 18.870, 588.0, 24.2487
26.832340040, 18.870, 583.0, 24.1454
26.843206520, 18.870, 520.0, 22.8035
26.854073000, 18.870, 540.0, 23.2379
26.864939480, 18.870, 499.0, 22.3383
26.875805960, 18.870, 477.0, 21.8403
26.886672440, 18.870, 462.0, 21.4942
26.897538920, 18.870, 477.0, 21.8403
26.908405400, 18.870, 443.0, 21.0476
26.919271880, 18.870, 427.0, 20.6640
26.930138360, 18.870, 418.0, 20.4450
26.941004840, 18.870, 437.0, 20.9045
26.951871320, 18.870, 372.0, 19.2873
26.962737800, 18.870, 388.0, 19.6977
26.973604280, 18.870, 445.0, 21.0950
26.984470760, 18.870, 416.0, 20.3961
26.995337240, 18.870, 406.0, 20.1494
27.006203720, 18.870, 431.0, 20.7605
27.017070200, 18.870, 389.0, 19.7231
27.027936680, 18.870, 421.0, 20.5183
27.038803160, 18.870, 383.0, 19.5704
27.049669640, 18.870, 410.0, 20.2485
27.060536120, 18.870, 398.0, 19.9499
27.071402600, 18.870, 367.0, 19.1572
27.082269080, 18.870, 411.0, 20.2731
27.093135560, 18.870, 372.0, 19.2873
27.104002040, 18.870, 360.0, 18.9737
27.114868520, 18.870, 365.0, 19.1050
27.125735000, 18.870, 367.0, 19.1572
27.136601480, 18.870, 352.0, 18.7617
27.147467960, 18.870, 371.0, 19.2614
27.158334440, 18.870, 368.0, 19.1833
27.169200920, 18.870, 384.0, 19.5959
27.180067400, 18.870, 358.0, 18.9209
27.190933880, 18.870, 382.0, 19.5448
27.201800360, 18.870, 422.0, 20.5426
27.212666840, 18.870, 393.0, 19.8242
27.223533320, 18.870, 381.0, 19.5192
27.234399800, 18.870, 390.0, 19.7484
27.245266280, 18.870, 372.0, 19.2873
27.256132760, 18.870, 351.0, 18.7350
27.266999240, 18.870, 395.0, 19.8746
27.277865720, 18.870, 386.0, 19.6469
27.288732200, 18.870, 412.0, 20.2978
27.299598680, 18.870, 433.0, 20.8087
27.310465160, 18.870, 432.0, 20.7846
27.321331640, 18.870, 425.0, 20.6155
27.332198120, 18.870, 408.0, 20.1990
27.343064600, 18.870, 462.0, 21.4942
27.353931080, 18.870, 379.0, 19.4679
27.364797560, 18.870, 428.0, 20.6882
27.375664040, 18.870, 415.0, 20.3715
27.386530520, 18.870, 439.0, 20.9523
27.397397000, 18.870, 429.0, 20.7123
27.408263480, 18.870, 467.0, 21.6102
27.419129960, 18.870, 472.0, 21.7256
27.429996440, 18.870, 460.0, 21.4476
27.440862920, 18.870, 471.0, 21.7025
27.451729400, 18.870, 453.0, 21.2838
27.462595880, 18.870, 477.0, 21.8403
27.473462360, 18.870, 468.0, 21.6333
27.484328840, 18.870, 466.0, 21.5870
27.495195320, 18.870, 485.0, 22.0227
27.506061800, 18.870, 555.0, 23.5584
27.516928280, 18.870, 459.0, 21.4243
27.527794760, 18.870, 468.0, 21.6333
27.538661240, 18.870, 468.0, 21.6333
27.549527720, 18.870, 497.0, 22.2935
27.560394200, 18.870, 505.0, 22.4722
27.571260680, 18.870, 496.0, 22.2711
27.582127160, 18.870, 528.0, 22.9783
27.592993640, 18.870, 484.0, 22.0000
27.603860120, 18.870, 482.0, 21.9545
27.614726600, 18.870, 497.0, 22.2935
27.625593080, 18.870, 501.0, 22.3830
27.636459560, 18.870, 504.0, 22.4499
27.647326040, 18.870, 498.0, 22.3159
27.658192520, 18.870, 470.0, 21.6795
27.669059000, 18.870, 477.0, 21.8403
27.679925480, 18.870, 513.0, 22.6495
27.690791960, 18.870, 477.0, 21.8403
27.701658440, 18.870, 465.0, 21.5639
27.712524920, 18.870, 479.0, 21.8861
27.723391400, 18.870, 458.0, 21.4009
27.734257880, 18.870, 476.0, 21.8174
27.745124360, 18.870, 449.0, 21.1896
27.755990840, 18.870, 483.0, 21.9773
27.766857320, 18.870, 527.0, 22.9565
27.777723800, 18.870, 514.0, 22.6716
27.788590280, 18.870, 486.0, 22.0454
27.799456760, 18.870, 501.0, 22.3830
27.810323240, 18.870, 531.0, 23.0434
27.821189720, 18.870, 545.0, 23.3452
27.832056200, 18.870, 548.0, 23.4094
27.842922680, 18.870, 582.0, 24.1247
27.853789160, 18.870, 567.0, 23.8118
27.864655640, 18.870, 659.0, 25.6710
27.875522120, 18.870, 668.0, 25.8457
27.886388600, 18.870, 684.0, 26.1534
27.897255080, 18.870, 729.0, 27.0000
27.908121560, 18.870, 819.0, 28.6182
27.918988040, 18.870, 821.0, 28.6531
27.929854520, 18.870, 886.0, 29.7658
27.940721000, 18.870, 858.0, 29.2916
27.951587480, 18.870, 934.0, 30.5614
27.962453960, 18.870, 927.0, 30.4467
27.973320440, 18.870, 957.0, 30.9354
27.984186920, 18.870, 965.0, 31.0644
27.995053400, 18.870, 1006.0, 31.7175
28.005919880, 18.870, 1083.0, 32.9090
28.016786360, 18.870, 1096.0, 33.1059
28.027652840, 18.870, 1149.0, 33.8969
28.038519320, 18.870, 1073.0, 32.7567
28.049385800, 18.870, 1125.0, 33.5410
28.060252280, 18.870, 1059.0, 32.5423
28.071118760, 18.870, 1096.0, 33.1059
28.081985240, 18.870, 1089.0, 33.0000
28.092851720, 18.870, 1089.0, 33.0000
28.103718200, 18.870, 1069.0, 32.6956
28.114584680, 18.870, 1050.0, 32.4037
28.125451160, 18.870, 1014.0, 31.8434
28.136317640, 18.870, 1003.0, 31.6702
28.147184120, 18.870, 988.0, 31.4325
28.158050600, 18.870, 985.0, 31.3847
28.168917080, 18.870, 977.0, 31.2570
28.179783560, 18.870, 897.0, 29.9500
28.190650040, 18.870, 979.0, 31.2890
28.201516520, 18.870, 897.0, 29.9500
28.212383000, 18.870, 865.0, 29.4109
28.223249480, 18.870, 839.0, 28.9655
28.234115960, 18.870, 889.0, 29.8161
28.244982440, 18.870, 855.0, 29.2404
28.255848920, 18.870, 797.0, 28.2312
28.266715400, 18.870, 780.0, 27.9285
28.277581880, 18.870, 767.0, 27.6948
28.288448360, 18.870, 729.0, 27.0000
28.299314840, 18.870, 726.0, 26.9444
28.310181320, 18.870, 675.0, 25.9808
28.321047800, 18.870, 670.0, 25.8844
28.331914280, 18.870, 670.0, 25.8844
28.342780760, 18.870, 633.0, 25.1595
28.353647240, 18.870, 633.0, 25.1595
28.364513720, 18.870, 607.0, 24.6374
28.375380200, 18.870, 562.0, 23.7065
28.386246680, 18.870, 596.0, 24.4131
28.397113160, 18.870, 516.0, 22.7156
28.407979640, 18.870, 548.0, 23.4094
28.418846120, 18.870, 526.0, 22.9347
28.429712600, 18.870, 485.0, 22.0227
28.440579080, 18.870, 543.0, 23.3024
28.451445560, 18.870, 536.0, 23.1517
28.462312040, 18.870, 492.0, 22.1811
28.473178520, 18.870, 471.0, 21.7025
28.484045000, 18.870, 484.0, 22.0000
28.494911480, 18.870, 466.0, 21.5870
28.505777960, 18.870, 477.0, 21.8403
28.516644440, 18.870, 466.0, 21.5870
28.527510920, 18.870, 454.0, 21.3073
28.538377400, 18.870, 440.0, 20.9762
28.549243880, 18.870, 441.0, 21.0000
28.560110360, 18.870, 411.0, 20.2731
28.570976840, 18.870, 461.0, 21.4709
28.581843320, 18.870, 421.0, 20.5183
28.592709800, 18.870, 401.0, 20.0250
28.603576280, 18.870, 451.0, 21.2368
28.614442760, 18.870, 415.0, 20.3715
28.625309240, 18.870, 396.0, 19.8997
28.636175720, 18.870, 427.0, 20.6640
28.647042200, 18.870, 418.0, 20.4450
28.657908680, 18.870, 388.0, 19.6977
28.668775160, 18.870, 376.0, 19.3907
28.679641640, 18.870, 427.0, 20.6640
28.690508120, 18.870, 415.0, 20.3715
28.701374600, 18.870, 411.0, 20.2731
28.712241080, 18.870, 369.0, 19.2094
28.723107560, 18.870, 365.0, 19.1050
28.733974040, 18.870, 405.0, 20.1246
28.744840520, 18.870, 419.0, 20.4695
28.755707000, 18.870, 382.0, 19.5448
28.766573480, 18.870, 397.0, 19.9249
28.777439960, 18.870, 370.0, 19.2354
28.788306440, 18.870, 361.0, 19.0000
28.799172920, 18.870, 373.0, 19.3132
28.810039400, 18.870, 372.0, 19.2873
28.820905880, 18.870, 387.0, 19.6723
28.831772360, 18.870, 350.0, 18.7083
28.842638840, 18.870, 385.0, 19.6214
28.853505320, 18.870, 342.0, 18.4932
28.864371800, 18.870, 391.0, 19.7737
28.875238280, 18.870, 366.0, 19.1311
28.886104760, 18.870, 366.0, 19.1311
28.896971240, 18.870, 387.0, 19.6723
28.907837720, 18.870, 395.0, 19.8746
28.918704200, 18.870, 388.0, 19.6977
28.929570680, 18.870, 390.0, 19.7484
28.940437160, 18.870, 345.0, 18.5742
28.951303640, 18.870, 381.0, 19.5192
28.962170120, 18.870, 368.0, 19.1833
28.973036600, 18.870, 390.0, 19.7484
28.983903080, 18.870, 369.0, 19.2094
28.994769560, 18.870, 347.0, 18.6279
29.005636040, 18.870, 339.0, 18.4120
29.016502520, 18.870, 370.0, 19.2354
29.027369000, 18.870, 410.0, 20.2485
29.038235480, 18.870, 369.0, 19.2094
29.049101960, 18.870, 349.0, 18.6815
29.059968440, 18.870, 350.0, 18.7083
29.070834920, 18.870, 372.0, 19.2873
29.081701400, 18.870, 346.0, 18.6011
29.092567880, 18.870, 372.0, 19.2873
29.103434360, 18.870, 379.0, 19.4679
29.114300840, 18.870, 379.0, 19.4679
29.125167320, 18.870, 372.0, 19.2873
29.136033800, 18.870, 373.0, 19.3132
29.146900280, 18.870, 364.0, 19.0788
29.157766760, 18.870, 323.0, 17.9722
29.168633240, 18.870, 353.0, 18.7883
29.179499720, 18.870, 353.0, 18.7883
29.190366200, 18.870, 357.0, 18.8944
29.201232680, 18.870, 372.0, 19.2873
29.212099160, 18.870, 378.0, 19.4422
29.222965640, 18.870, 370.0, 19.2354
29.233832120, 18.870, 375.0, 19.3649
29.244698600, 18.870, 410.0, 20.2485
29.255565080, 18.870, 439.0, 20.9523
29.266431560, 18.870, 465.0, 21.5639
29.277298040, 18.870, 442.0, 21.0238
29.288164520, 18.870, 511.0, 22.6053
29.299031000, 18.870, 448.0, 21.1660
29.309897480, 18.870, 400.0, 20.0000
29.320763960, 18.870, 390.0, 19.7484
29.331630440, 18.870, 408.0, 20.1990
29.342496920, 18.870, 404.0, 20.0998
29.353363400, 18.870, 389.0, 19.7231
29.364229880, 18.870, 415.0, 20.3715
29.375096360, 18.870, 353.0, 18.7883
29.385962840, 18.870, 318.0, 17.8326
29.396829320, 18.870, 352.0, 18.7617
29.407695800, 18.870, 330.0, 18.1659
29.418562280, 18.870, 324.0, 18.0000
29.429428760, 18.870, 277.0, 16.6433
29.440295240, 18.870, 318.0, 17.8326
29.451161720, 18.870, 326.0, 18.0555
29.462028200, 18.870, 337.0, 18.3576
29.472894680, 18.870, 322.0, 17.9444
29.483761160, 18.870, 360.0, 18.9737
29.494627640, 18.870, 333.0, 18.2483
29.505494120, 18.870, 342.0, 18.4932
29.516360600, 18.870, 334.0, 18.2757
29.527227080, 18.870, 312.0, 17.6635
29.538093560, 18.870, 329.0, 18.1384
29.548960040, 18.870, 351.0, 18.7350
29.559826520, 18.870, 305.0, 17.4642
29.570693000, 18.870, 376.0, 19.3907
29.581559480, 18.870, 341.0, 18.4662
29.592425960, 18.870, 329.0, 18.1384
29.603292440, 18.870, 362.0, 19.0263
29.614158920, 18.870, 357.0, 18.8944
29.625025400, 18.870, 346.0, 18.6011
29.635891880, 18.870, 369.0, 19.2094
29.646758360, 18.870, 337.0, 18.3576
29.657624840, 18.870, 401.0, 20.0250
29.668491320, 18.870, 353.0, 18.7883
29.679357800, 18.870, 320.0, 17.8885
29.690224280, 18.870, 363.0, 19.0526
29.701090760, 18.870, 387.0, 19.6723
29.711957240, 18.870, 393.0, 19.8242
29.722823720, 18.870, 384.0, 19.5959
29.733690200, 18.870, 383.0, 19.5704
29.744556680, 18.870, 423.0, 20.5670
29.755423160, 18.870, 379.0, 19.4679
29.766289640, 18.870, 411.0, 20.2731
29.777156120, 18.870, 380.0, 19.4936
29.788022600, 18.870, 360.0, 18.9737
29.798889080, 18.870, 383.0, 19.5704
29.809755560, 18.870, 387.0, 19.6723
29.820622040, 18.870, 439.0, 20.9523
29.831488520, 18.870, 413.0, 20.3224
29.842355000, 18.870, 427.0, 20.6640
29.853221480, 18.870, 442.0, 21.0238
29.864087960, 18.870, 450.0, 21.2132
29.874954440, 18.870, 470.0, 21.6795
29.885820920, 18.870, 503.0, 22.4277
29.896687400, 18.870, 506.0, 22.4944
29.907553880, 18.870, 483.0, 21.9773
29.918420360, 18.870, 516.0, 22.7156
29.929286840, 18.870, 497.0, 22.2935
29.940153320, 18.870, 498.0, 22.3159
29.951019800, 18.870, 543.0, 23.3024
29.961886280, 18.870, 558.0, 23.6220
29.972752760, 18.870, 558.0, 23.6220
29.983619240, 18.870, 567.0, 23.8118
29.994485720, 18.870, 544.0, 23.3238
