[Measurement conditions]
Anode material,Cu
K-Alpha1 wavelength,1.5405980
K-Alpha2 wavelength,1.5444260
Ratio K-Alpha2/K-Alpha1,0.500
Divergence slit,Fixed,0.38mm
Monochromator used,NO
Generator voltage, 40
Tube current, 15
File date and time,17/Sep/2026 11:38
Unit cell,
h k l, 0 0 0
Scan axis,Gonio
Scan range,1.997000000,29.999918960
Scan step size,0.0108665
No. of points, 2577
Scan type,CONTINUOUS
Time per step,18.870
[Scan points]
Angle, TimePerStep, Intensity, ESD
2.002433240, 18.870, 59345.0, 243.6083
2.013299720, 18.870, 56867.0, 238.4680
2.024166200, 18.870, 54820.0, 234.1367
2.035032680, 18.870, 52600.0, 229.3469
2.045899160, 18.870, 50544.0, 224.8199
2.056765640, 18.870, 48255.0, 219.6702
2.067632120, 18.870, 45929.0, 214.3105
2.078498600, 18.870, 43481.0, 208.5210
2.089365080, 18.870, 41438.0, 203.5633
2.100231560, 18.870, 38727.0, 196.7918
2.111098040, 18.870, 36511.0, 191.0785
2.121964520, 18.870, 34076.0, 184.5969
2.132831000, 18.870, 31730.0, 178.1292
2.143697480, 18.870, 29671.0, 172.2527
2.154563960, 18.870, 27049.0, 164.4658
2.165430440, 18.870, 24625.0, 156.9235
2.176296920, 18.870, 22185.0, 148.9463
2.187163400, 18.870, 19496.0, 139.6281
2.198029880, 18.870, 17390.0, 131.8711
2.208896360, 18.870, 15011.0, 122.5194
2.219762840, 18.870, 12625.0, 112.3610
2.230629320, 18.870, 10199.0, 100.9901
2.241495800, 18.870, 7908.0, 88.9269
2.252362280, 18.870, 5722.0, 75.6439
2.263228760, 18.870, 4453.0, 66.7308
2.274095240, 18.870, 3652.0, 60.4318
2.284961720, 18.870, 3070.0, 55.4076
2.295828200, 18.870, 2970.0, 54.4977
2.306694680, 18.870, 2825.0, 53.1507
2.317561160, 18.870, 2730.0, 52.2494
2.328427640, 18.870, 2846.0, 53.3479
2.339294120, 18.870, 2735.0, 52.2972
2.350160600, 18.870, 2761.0, 52.5452
2.361027080, 18.870, 2724.0, 52.1920
2.371893560, 18.870, 2589.0, 50.8822
2.382760040, 18.870, 2674.0, 51.7107
2.393626520, 18.870, 2722.0, 52.1728
2.404493000, 18.870, 2793.0, 52.8488
2.415359480, 18.870, 2675.0, 51.7204
2.426225960, 18.870, 2679.0, 51.7591
2.437092440, 18.870, 2606.0, 51.0490
2.447958920, 18.870, 2577.0, 50.7642
2.458825400, 18.870, 2611.0, 51.0979
2.469691880, 18.870, 2598.0, 50.9706
2.480558360, 18.870, 2591.0, 50.9019
2.491424840, 18.870, 2617.0, 51.1566
2.502291320, 18.870, 2594.0, 50.9313
2.513157800, 18.870, 2544.0, 50.4381
2.524024280, 18.870, 2568.0, 50.6754
2.534890760, 18.870, 2445.0, 49.4469
2.545757240, 18.870, 2623.0, 51.2152
2.556623720, 18.870, 2447.0, 49.4672
2.567490200, 18.870, 2525.0, 50.2494
2.578356680, 18.870, 2469.0, 49.6890
2.589223160, 18.870, 2516.0, 50.1597
2.600089640, 18.870, 2519.0, 50.1896
2.610956120, 18.870, 2467.0, 49.6689
2.621822600, 18.870, 2531.0, 50.3090
2.632689080, 18.870, 2493.0, 49.9300
2.643555560, 18.870, 2457.0, 49.5681
2.654422040, 18.870, 2414.0, 49.1325
2.665288520, 18.870, 2479.0, 49.7896
2.676155000, 18.870, 2380.0, 48.7852
2.687021480, 18.870, 2437.0, 49.3660
2.697887960, 18.870, 2392.0, 48.9081
2.708754440, 18.870, 2415.0, 49.1426
2.719620920, 18.870, 2429.0, 49.2849
2.730487400, 18.870, 2325.0, 48.2183
2.741353880, 18.870, 2384.0, 48.8262
2.752220360, 18.870, 2368.0, 48.6621
2.763086840, 18.870, 2351.0, 48.4871
2.773953320, 18.870, 2339.0, 48.3632
2.784819800, 18.870, 2321.0, 48.1768
2.795686280, 18.870, 2415.0, 49.1426
2.806552760, 18.870, 2446.0, 49.4571
2.817419240, 18.870, 2512.0, 50.1199
2.828285720, 18.870, 2433.0, 49.3254
2.839152200, 18.870, 2413.0, 49.1223
2.850018680, 18.870, 2445.0, 49.4469
2.860885160, 18.870, 2468.0, 49.6790
2.871751640, 18.870, 2353.0, 48.5077
2.882618120, 18.870, 2494.0, 49.9400
2.893484600, 18.870, 2475.0, 49.7494
2.904351080, 18.870, 2507.0, 50.0700
2.915217560, 18.870, 2496.0, 49.9600
2.926084040, 18.870, 2553.0, 50.5272
2.936950520, 18.870, 2593.0, 50.9215
2.947817000, 18.870, 2542.0, 50.4183
2.958683480, 18.870, 2606.0, 51.0490
2.969549960, 18.870, 2526.0, 50.2593
2.980416440, 18.870, 2689.0, 51.8556
2.991282920, 18.870, 2757.0, 52.5071
3.002149400, 18.870, 2745.0, 52.3927
3.013015880, 18.870, 2682.0, 51.7880
3.023882360, 18.870, 2739.0, 52.3355
3.034748840, 18.870, 2871.0, 53.5817
3.045615320, 18.870, 2982.0, 54.6077
3.056481800, 18.870, 3145.0, 56.0803
3.067348280, 18.870, 3043.0, 55.1634
3.078214760, 18.870, 3175.0, 56.3471
3.089081240, 18.870, 3181.0, 56.4004
3.099947720, 18.870, 3334.0, 57.7408
3.110814200, 18.870, 3400.0, 58.3095
3.121680680, 18.870, 3201.0, 56.5774
3.132547160, 18.870, 3287.0, 57.3324
3.143413640, 18.870, 3218.0, 56.7274
3.154280120, 18.870, 3174.0, 56.3383
3.165146600, 18.870, 3045.0, 55.1815
3.176013080, 18.870, 3069.0, 55.3986
3.186879560, 18.870, 3023.0, 54.9818
3.197746040, 18.870, 2846.0, 53.3479
3.208612520, 18.870, 2768.0, 52.6118
3.219479000, 18.870, 2627.0, 51.2543
3.230345480, 18.870, 2462.0, 49.6185
3.241211960, 18.870, 2310.0, 48.0625
3.252078440, 18.870, 2286.0, 47.8121
3.262944920, 18.870, 2176.0, 46.6476
3.273811400, 18.870, 2022.0, 44.9667
3.284677880, 18.870, 2066.0, 45.4533
3.295544360, 18.870, 2044.0, 45.2106
3.306410840, 18.870, 1918.0, 43.7950
3.317277320, 18.870, 1986.0, 44.5646
3.328143800, 18.870, 1893.0, 43.5086
3.339010280, 18.870, 1896.0, 43.5431
3.349876760, 18.870, 1923.0, 43.8520
3.360743240, 18.870, 1757.0, 41.9166
3.371609720, 18.870, 1871.0, 43.2551
3.382476200, 18.870, 1829.0, 42.7668
3.393342680, 18.870, 1755.0, 41.8927
3.404209160, 18.870, 1761.0, 41.9643
3.415075640, 18.870, 1672.0, 40.8901
3.425942120, 18.870, 1704.0, 41.2795
3.436808600, 18.870, 1733.0, 41.6293
3.447675080, 18.870, 1706.0, 41.3038
3.458541560, 18.870, 1664.0, 40.7922
3.469408040, 18.870, 1701.0, 41.2432
3.480274520, 18.870, 1610.0, 40.1248
3.491141000, 18.870, 1647.0, 40.5832
3.502007480, 18.870, 1629.0, 40.3609
3.512873960, 18.870, 1624.0, 40.2989
3.523740440, 18.870, 1629.0, 40.3609
3.534606920, 18.870, 1604.0, 40.0500
3.545473400, 18.870, 1566.0, 39.5727
3.556339880, 18.870, 1548.0, 39.3446
3.567206360, 18.870, 1549.0, 39.3573
3.578072840, 18.870, 1555.0, 39.4335
3.588939320, 18.870, 1592.0, 39.8999
3.599805800, 18.870, 1533.0, 39.1535
3.610672280, 18.870, 1528.0, 39.0896
3.621538760, 18.870, 1586.0, 39.8246
3.632405240, 18.870, 1473.0, 38.3797
3.643271720, 18.870, 1520.0, 38.9872
3.654138200, 18.870, 1477.0, 38.4318
3.665004680, 18.870, 1456.0, 38.1576
3.675871160, 18.870, 1378.0, 37.1214
3.686737640, 18.870, 1470.0, 38.3406
3.697604120, 18.870, 1462.0, 38.2361
3.708470600, 18.870, 1507.0, 38.8201
3.719337080, 18.870, 1503.0, 38.7685
3.730203560, 18.870, 1434.0, 37.8682
3.741070040, 18.870, 1380.0, 37.1484
3.751936520, 18.870, 1418.0, 37.6563
3.762803000, 18.870, 1382.0, 37.1753
3.773669480, 18.870, 1416.0, 37.6298
3.784535960, 18.870, 1517.0, 38.9487
3.795402440, 18.870, 1419.0, 37.6696
3.806268920, 18.870, 1351.0, 36.7560
3.817135400, 18.870, 1376.0, 37.0945
3.828001880, 18.870, 1291.0, 35.9305
3.838868360, 18.870, 1405.0, 37.4833
3.849734840, 18.870, 1412.0, 37.5766
3.860601320, 18.870, 1370.0, 37.0135
3.871467800, 18.870, 1397.0, 37.3765
3.882334280, 18.870, 1450.0, 38.0789
3.893200760, 18.870, 1425.0, 37.7492
3.904067240, 18.870, 1484.0, 38.5227
3.914933720, 18.870, 1391.0, 37.2961
3.925800200, 18.870, 1358.0, 36.8511
3.936666680, 18.870, 1411.0, 37.5633
3.947533160, 18.870, 1433.0, 37.8550
3.958399640, 18.870, 1469.0, 38.3275
3.969266120, 18.870, 1424.0, 37.7359
3.980132600, 18.870, 1410.0, 37.5500
3.990999080, 18.870, 1350.0, 36.7423
4.001865560, 18.870, 1463.0, 38.2492
4.012732040, 18.870, 1498.0, 38.7040
4.023598520, 18.870, 1459.0, 38.1969
4.034465000, 18.870, 1505.0, 38.7943
4.045331480, 18.870, 1462.0, 38.2361
4.056197960, 18.870, 1456.0, 38.1576
4.067064440, 18.870, 1530.0, 39.1152
4.077930920, 18.870, 1583.0, 39.7869
4.088797400, 18.870, 1554.0, 39.4208
4.099663880, 18.870, 1660.0, 40.7431
4.110530360, 18.870, 1668.0, 40.8412
4.121396840, 18.870, 1620.0, 40.2492
4.132263320, 18.870, 1665.0, 40.8044
4.143129800, 18.870, 1582.0, 39.7744
4.153996280, 18.870, 1737.0, 41.6773
4.164862760, 18.870, 1725.0, 41.5331
4.175729240, 18.870, 1766.0, 42.0238
4.186595720, 18.870, 1750.0, 41.8330
4.197462200, 18.870, 1810.0, 42.5441
4.208328680, 18.870, 1856.0, 43.0813
4.219195160, 18.870, 1941.0, 44.0568
4.230061640, 18.870, 1928.0, 43.9090
4.240928120, 18.870, 1960.0, 44.2719
4.251794600, 18.870, 2079.0, 45.5961
4.262661080, 18.870, 2143.0, 46.2925
4.273527560, 18.870, 2161.0, 46.4866
4.284394040, 18.870, 2219.0, 47.1063
4.295260520, 18.870, 2373.0, 48.7134
4.306127000, 18.870, 2437.0, 49.3660
4.316993480, 18.870, 2552.0, 50.5173
4.327859960, 18.870, 2683.0, 51.7977
4.338726440, 18.870, 2791.0, 52.8299
4.349592920, 18.870, 2884.0, 53.7029
4.360459400, 18.870, 3042.0, 55.1543
4.371325880, 18.870, 3242.0, 56.9386
4.382192360, 18.870, 3424.0, 58.5150
4.393058840, 18.870, 3683.0, 60.6877
4.403925320, 18.870, 4002.0, 63.2614
4.414791800, 18.870, 4224.0, 64.9923
4.425658280, 18.870, 4520.0, 67.2309
4.436524760, 18.870, 4830.0, 69.4982
4.447391240, 18.870, 5235.0, 72.3533
4.458257720, 18.870, 5420.0, 73.6206
4.469124200, 18.870, 5780.0, 76.0263
4.479990680, 18.870, 6130.0, 78.2943
4.490857160, 18.870, 6308.0, 79.4229
4.501723640, 18.870, 6521.0, 80.7527
4.512590120, 18.870, 6653.0, 81.5659
4.523456600, 18.870, 6542.0, 80.8826
4.534323080, 18.870, 6368.0, 79.7997
4.545189560, 18.870, 6082.0, 77.9872
4.556056040, 18.870, 5674.0, 75.3260
4.566922520, 18.870, 5418.0, 73.6071
4.577789000, 18.870, 4849.0, 69.6348
4.588655480, 18.870, 4654.0, 68.2202
4.599521960, 18.870, 4386.0, 66.2269
4.610388440, 18.870, 4026.0, 63.4508
4.621254920, 18.870, 3797.0, 61.6198
4.632121400, 18.870, 3478.0, 58.9746
4.642987880, 18.870, 3379.0, 58.1292
4.653854360, 18.870, 3148.0, 56.1070
4.664720840, 18.870, 2905.0, 53.8981
4.675587320, 18.870, 2773.0, 52.6593
4.686453800, 18.870, 2628.0, 51.2640
4.697320280, 18.870, 2439.0, 49.3862
4.708186760, 18.870, 2285.0, 47.8017
4.719053240, 18.870, 2059.0, 45.3762
4.729919720, 18.870, 1825.0, 42.7200
4.740786200, 18.870, 1593.0, 39.9124
4.751652680, 18.870, 1559.0, 39.4842
4.762519160, 18.870, 1458.0, 38.1838
4.773385640, 18.870, 1300.0, 36.0555
4.784252120, 18.870, 1257.0, 35.4542
4.795118600, 18.870, 1172.0, 34.2345
4.805985080, 18.870, 1123.0, 33.5112
4.816851560, 18.870, 1160.0, 34.0588
4.827718040, 18.870, 1038.0, 32.2180
4.838584520, 18.870, 1058.0, 32.5269
4.849451000, 18.870, 1057.0, 32.5115
4.860317480, 18.870, 985.0, 31.3847
4.871183960, 18.870, 979.0, 31.2890
4.882050440, 18.870, 943.0, 30.7083
4.892916920, 18.870, 973.0, 31.1929
4.903783400, 18.870, 902.0, 30.0333
4.914649880, 18.870, 966.0, 31.0805
4.925516360, 18.870, 871.0, 29.5127
4.936382840, 18.870, 865.0, 29.4109
4.947249320, 18.870, 857.0, 29.2746
4.958115800, 18.870, 833.0, 28.8617
4.968982280, 18.870, 837.0, 28.9310
4.979848760, 18.870, 784.0, 28.0000
4.990715240, 18.870, 820.0, 28.6356
5.001581720, 18.870, 820.0, 28.6356
5.012448200, 18.870, 779.0, 27.9106
5.023314680, 18.870, 777.0, 27.8747
5.034181160, 18.870, 841.0, 29.0000
5.045047640, 18.870, 826.0, 28.7402
5.055914120, 18.870, 773.0, 27.8029
5.066780600, 18.870, 813.0, 28.5132
5.077647080, 18.870, 776.0, 27.8568
5.088513560, 18.870, 843.0, 29.0345
5.099380040, 18.870, 741.0, 27.2213
5.110246520, 18.870, 805.0, 28.3725
5.121113000, 18.870, 767.0, 27.6948
5.131979480, 18.870, 727.0, 26.9629
5.142845960, 18.870, 742.0, 27.2397
5.153712440, 18.870, 780.0, 27.9285
5.164578920, 18.870, 752.0, 27.4226
5.175445400, 18.870, 740.0, 27.2029
5.186311880, 18.870, 760.0, 27.5681
5.197178360, 18.870, 779.0, 27.9106
5.208044840, 18.870, 672.0, 25.9230
5.218911320, 18.870, 728.0, 26.9815
5.229777800, 18.870, 772.0, 27.7849
5.240644280, 18.870, 763.0, 27.6225
5.251510760, 18.870, 784.0, 28.0000
5.262377240, 18.870, 760.0, 27.5681
5.273243720, 18.870, 739.0, 27.1846
5.284110200, 18.870, 739.0, 27.1846
5.294976680, 18.870, 794.0, 28.1780
5.305843160, 18.870, 741.0, 27.2213
5.316709640, 18.870, 743.0, 27.2580
5.327576120, 18.870, 765.0, 27.6586
5.338442600, 18.870, 752.0, 27.4226
5.349309080, 18.870, 791.0, 28.1247
5.360175560, 18.870, 817.0, 28.5832
5.371042040, 18.870, 773.0, 27.8029
5.381908520, 18.870, 779.0, 27.9106
5.392775000, 18.870, 788.0, 28.0713
5.403641480, 18.870, 781.0, 27.9464
5.414507960, 18.870, 760.0, 27.5681
5.425374440, 18.870, 792.0, 28.1425
5.436240920, 18.870, 768.0, 27.7128
5.447107400, 18.870, 875.0, 29.5804
5.457973880, 18.870, 791.0, 28.1247
5.468840360, 18.870, 846.0, 29.0861
5.479706840, 18.870, 849.0, 29.1376
5.490573320, 18.870, 839.0, 28.9655
5.501439800, 18.870, 908.0, 30.1330
5.512306280, 18.870, 837.0, 28.9310
5.523172760, 18.870, 866.0, 29.4279
5.534039240, 18.870, 884.0, 29.7321
5.544905720, 18.870, 862.0, 29.3598
5.555772200, 18.870, 826.0, 28.7402
5.566638680, 18.870, 912.0, 30.1993
5.577505160, 18.870, 995.0, 31.5436
5.588371640, 18.870, 962.0, 31.0161
5.599238120, 18.870, 977.0, 31.2570
5.610104600, 18.870, 964.0, 31.0483
5.620971080, 18.870, 1046.0, 32.3419
5.631837560, 18.870, 1044.0, 32.3110
5.642704040, 18.870, 1110.0, 33.3167
5.653570520, 18.870, 1114.0, 33.3766
5.664437000, 18.870, 1141.0, 33.7787
5.675303480, 18.870, 1153.0, 33.9559
5.686169960, 18.870, 1238.0, 35.1852
5.697036440, 18.870, 1249.0, 35.3412
5.707902920, 18.870, 1339.0, 36.5923
5.718769400, 18.870, 1233.0, 35.1141
5.729635880, 18.870, 1475.0, 38.4057
5.740502360, 18.870, 1496.0, 38.6782
5.751368840, 18.870, 1516.0, 38.9358
5.762235320, 18.870, 1625.0, 40.3113
5.773101800, 18.870, 1714.0, 41.4005
5.783968280, 18.870, 1865.0, 43.1856
5.794834760, 18.870, 1852.0, 43.0349
5.805701240, 18.870, 1899.0, 43.5775
5.816567720, 18.870, 2039.0, 45.1553
5.827434200, 18.870, 2239.0, 47.3181
5.838300680, 18.870, 2328.0, 48.2494
5.849167160, 18.870, 2492.0, 49.9199
5.860033640, 18.870, 2684.0, 51.8073
5.870900120, 18.870, 2890.0, 53.7587
5.881766600, 18.870, 3134.0, 55.9821
5.892633080, 18.870, 3188.0, 56.4624
5.903499560, 18.870, 3524.0, 59.3633
5.914366040, 18.870, 3804.0, 61.6766
5.925232520, 18.870, 3998.0, 63.2297
5.936099000, 18.870, 4267.0, 65.3223
5.946965480, 18.870, 4531.0, 67.3127
5.957831960, 18.870, 4849.0, 69.6348
5.968698440, 18.870, 5069.0, 71.1969
5.979564920, 18.870, 5163.0, 71.8540
5.990431400, 18.870, 5426.0, 73.6614
6.001297880, 18.870, 5584.0, 74.7262
6.012164360, 18.870, 5816.0, 76.2627
6.023030840, 18.870, 5810.0, 76.2234
6.033897320, 18.870, 5745.0, 75.7958
6.044763800, 18.870, 5725.0, 75.6637
6.055630280, 18.870, 5629.0, 75.0267
6.066496760, 18.870, 5280.0, 72.6636
6.077363240, 18.870, 4739.0, 68.8404
6.088229720, 18.870, 4526.0, 67.2756
6.099096200, 18.870, 4021.0, 63.4114
6.109962680, 18.870, 3422.0, 58.4979
6.120829160, 18.870, 3127.0, 55.9196
6.131695640, 18.870, 2759.0, 52.5262
6.142562120, 18.870, 2504.0, 50.0400
6.153428600, 18.870, 2292.0, 47.8748
6.164295080, 18.870, 1988.0, 44.5870
6.175161560, 18.870, 1817.0, 42.6263
6.186028040, 18.870, 1690.0, 41.1096
6.196894520, 18.870, 1606.0, 40.0749
6.207761000, 18.870, 1475.0, 38.4057
6.218627480, 18.870, 1357.0, 36.8375
6.229493960, 18.870, 1181.0, 34.3657
6.240360440, 18.870, 1133.0, 33.6601
6.251226920, 18.870, 1019.0, 31.9218
6.262093400, 18.870, 956.0, 30.9192
6.272959880, 18.870, 861.0, 29.3428
6.283826360, 18.870, 844.0, 29.0517
6.294692840, 18.870, 780.0, 27.9285
6.305559320, 18.870, 724.0, 26.9072
6.316425800, 18.870, 736.0, 27.1293
6.327292280, 18.870, 673.0, 25.9422
6.338158760, 18.870, 643.0, 25.3574
6.349025240, 18.870, 608.0, 24.6577
6.359891720, 18.870, 649.0, 25.4755
6.370758200, 18.870, 560.0, 23.6643
6.381624680, 18.870, 605.0, 24.5967
6.392491160, 18.870, 556.0, 23.5797
6.403357640, 18.870, 606.0, 24.6171
6.414224120, 18.870, 638.0, 25.2587
6.425090600, 18.870, 543.0, 23.3024
6.435957080, 18.870, 568.0, 23.8328
6.446823560, 18.870, 565.0, 23.7697
6.457690040, 18.870, 496.0, 22.2711
6.468556520, 18.870, 501.0, 22.3830
6.479423000, 18.870, 552.0, 23.4947
6.490289480, 18.870, 524.0, 22.8910
6.501155960, 18.870, 502.0, 22.4054
6.512022440, 18.870, 475.0, 21.7945
6.522888920, 18.870, 479.0, 21.8861
6.533755400, 18.870, 484.0, 22.0000
6.544621880, 18.870, 501.0, 22.3830
6.555488360, 18.870, 485.0, 22.0227
6.566354840, 18.870, 477.0, 21.8403
6.577221320, 18.870, 562.0, 23.7065
6.588087800, 18.870, 473.0, 21.7486
6.598954280, 18.870, 499.0, 22.3383
6.609820760, 18.870, 490.0, 22.1359
6.620687240, 18.870, 512.0, 22.6274
6.631553720, 18.870, 496.0, 22.2711
6.642420200, 18.870, 520.0, 22.8035
6.653286680, 18.870, 485.0, 22.0227
6.664153160, 18.870, 503.0, 22.4277
6.675019640, 18.870, 495.0, 22.2486
6.685886120, 18.870, 473.0, 21.7486
6.696752600, 18.870, 483.0, 21.9773
6.707619080, 18.870, 471.0, 21.7025
6.718485560, 18.870, 522.0, 22.8473
6.729352040, 18.870, 438.0, 20.9284
6.740218520, 18.870, 546.0, 23.3666
6.751085000, 18.870, 565.0, 23.7697
6.761951480, 18.870, 491.0, 22.1585
6.772817960, 18.870, 503.0, 22.4277
6.783684440, 18.870, 513.0, 22.6495
6.794550920, 18.870, 482.0, 21.9545
6.805417400, 18.870, 567.0, 23.8118
6.816283880, 18.870, 527.0, 22.9565
6.827150360, 18.870, 498.0, 22.3159
6.838016840, 18.870, 541.0, 23.2594
6.848883320, 18.870, 521.0, 22.8254
6.859749800, 18.870, 539.0, 23.2164
6.870616280, 18.870, 538.0, 23.1948
6.881482760, 18.870, 565.0, 23.7697
6.892349240, 18.870, 558.0, 23.6220
6.903215720, 18.870, 526.0, 22.9347
6.914082200, 18.870, 542.0, 23.2809
6.924948680, 18.870, 556.0, 23.5797
6.935815160, 18.870, 571.0, 23.8956
6.946681640, 18.870, 569.0, 23.8537
6.957548120, 18.870, 583.0, 24.1454
6.968414600, 18.870, 648.0, 25.4558
6.979281080, 18.870, 645.0, 25.3969
6.990147560, 18.870, 631.0, 25.1197
7.001014040, 18.870, 620.0, 24.8998
7.011880520, 18.870, 635.0, 25.1992
7.022747000, 18.870, 694.0, 26.3439
7.033613480, 18.870, 728.0, 26.9815
7.044479960, 18.870, 709.0, 26.6271
7.055346440, 18.870, 757.0, 27.5136
7.066212920, 18.870, 758.0, 27.5318
7.077079400, 18.870, 717.0, 26.7769
7.087945880, 18.870, 789.0, 28.0891
7.098812360, 18.870, 847.0, 29.1033
7.109678840, 18.870, 880.0, 29.6648
7.120545320, 18.870, 871.0, 29.5127
7.131411800, 18.870, 907.0, 30.1164
7.142278280, 18.870, 945.0, 30.7409
7.153144760, 18.870, 994.0, 31.5278
7.164011240, 18.870, 1042.0, 32.2800
7.174877720, 18.870, 1049.0, 32.3883
7.185744200, 18.870, 1103.0, 33.2114
7.196610680, 18.870, 1188.0, 34.4674
7.207477160, 18.870, 1187.0, 34.4529
7.218343640, 18.870, 1309.0, 36.1801
7.229210120, 18.870, 1331.0, 36.4829
7.240076600, 18.870, 1372.0, 37.0405
7.250943080, 18.870, 1487.0, 38.5616
7.261809560, 18.870, 1499.0, 38.7169
7.272676040, 18.870, 1630.0, 40.3733
7.283542520, 18.870, 1700.0, 41.2311
7.294409000, 18.870, 1820.0, 42.6615
7.305275480, 18.870, 1929.0, 43.9204
7.316141960, 18.870, 2067.0, 45.4643
7.327008440, 18.870, 2162.0, 46.4973
7.337874920, 18.870, 2240.0, 47.3286
7.348741400, 18.870, 2420.0, 49.1935
7.359607880, 18.870, 2824.0, 53.1413
7.370474360, 18.870, 2844.0, 53.3292
7.381340840, 18.870, 3158.0, 56.1961
7.392207320, 18.870, 3371.0, 58.0603
7.403073800, 18.870, 3594.0, 59.9500
7.413940280, 18.870, 3859.0, 62.1208
7.424806760, 18.870, 4102.0, 64.0469
7.435673240, 18.870, 4368.0, 66.0908
7.446539720, 18.870, 4396.0, 66.3023
7.457406200, 18.870, 4712.0, 68.6440
7.468272680, 18.870, 4886.0, 69.8999
7.479139160, 18.870, 5099.0, 71.4073
7.490005640, 18.870, 5245.0, 72.4224
7.500872120, 18.870, 5225.0, 72.2842
7.511738600, 18.870, 5365.0, 73.2462
7.522605080, 18.870, 5399.0, 73.4779
7.533471560, 18.870, 5515.0, 74.2630
7.544338040, 18.870, 5538.0, 74.4177
7.555204520, 18.870, 5298.0, 72.7874
7.566071000, 18.870, 5293.0, 72.7530
7.576937480, 18.870, 5178.0, 71.9583
7.587803960, 18.870, 4720.0, 68.7023
7.598670440, 18.870, 4268.0, 65.3299
7.609536920, 18.870, 3970.0, 63.0079
7.620403400, 18.870, 3484.0, 59.0254
7.631269880, 18.870, 3054.0, 55.2630
7.642136360, 18.870, 2747.0, 52.4118
7.653002840, 18.870, 2351.0, 48.4871
7.663869320, 18.870, 2180.0, 46.6905
7.674735800, 18.870, 1909.0, 43.6921
7.685602280, 18.870, 1692.0, 41.1339
7.696468760, 18.870, 1497.0, 38.6911
7.707335240, 18.870, 1317.0, 36.2905
7.718201720, 18.870, 1189.0, 34.4819
7.729068200, 18.870, 1119.0, 33.4515
7.739934680, 18.870, 1037.0, 32.2025
7.750801160, 18.870, 975.0, 31.2250
7.761667640, 18.870, 900.0, 30.0000
7.772534120, 18.870, 774.0, 27.8209
7.783400600, 18.870, 712.0, 26.6833
7.794267080, 18.870, 687.0, 26.2107
7.805133560, 18.870, 668.0, 25.8457
7.816000040, 18.870, 580.0, 24.0832
7.826866520, 18.870, 570.0, 23.8747
7.837733000, 18.870, 567.0, 23.8118
7.848599480, 18.870, 504.0, 22.4499
7.859465960, 18.870, 476.0, 21.8174
7.870332440, 18.870, 498.0, 22.3159
7.881198920, 18.870, 471.0, 21.7025
7.892065400, 18.870, 486.0, 22.0454
7.902931880, 18.870, 433.0, 20.8087
7.913798360, 18.870, 443.0, 21.0476
7.924664840, 18.870, 433.0, 20.8087
7.935531320, 18.870, 465.0, 21.5639
7.946397800, 18.870, 418.0, 20.4450
7.957264280, 18.870, 442.0, 21.0238
7.968130760, 18.870, 419.0, 20.4695
7.978997240, 18.870, 381.0, 19.5192
7.989863720, 18.870, 400.0, 20.0000
8.000730200, 18.870, 375.0, 19.3649
8.011596680, 18.870, 434.0, 20.8327
8.022463160, 18.870, 395.0, 19.8746
8.033329640, 18.870, 386.0, 19.6469
8.044196120, 18.870, 392.0, 19.7990
8.055062600, 18.870, 413.0, 20.3224
8.065929080, 18.870, 398.0, 19.9499
8.076795560, 18.870, 365.0, 19.1050
8.087662040, 18.870, 387.0, 19.6723
8.098528520, 18.870, 362.0, 19.0263
8.109395000, 18.870, 387.0, 19.6723
8.120261480, 18.870, 351.0, 18.7350
8.131127960, 18.870, 382.0, 19.5448
8.141994440, 18.870, 389.0, 19.7231
8.152860920, 18.870, 400.0, 20.0000
8.163727400, 18.870, 351.0, 18.7350
8.174593880, 18.870, 375.0, 19.3649
8.185460360, 18.870, 355.0, 18.8414
8.196326840, 18.870, 372.0, 19.2873
8.207193320, 18.870, 392.0, 19.7990
8.218059800, 18.870, 337.0, 18.3576
8.228926280, 18.870, 373.0, 19.3132
8.239792760, 18.870, 355.0, 18.8414
8.250659240, 18.870, 366.0, 19.1311
8.261525720, 18.870, 342.0, 18.4932
8.272392200, 18.870, 379.0, 19.4679
8.283258680, 18.870, 369.0, 19.2094
8.294125160, 18.870, 386.0, 19.6469
8.304991640, 18.870, 393.0, 19.8242
8.315858120, 18.870, 368.0, 19.1833
8.326724600, 18.870, 378.0, 19.4422
8.337591080, 18.870, 383.0, 19.5704
8.348457560, 18.870, 344.0, 18.5472
8.359324040, 18.870, 349.0, 18.6815
8.370190520, 18.870, 382.0, 19.5448
8.381057000, 18.870, 345.0, 18.5742
8.391923480, 18.870, 380.0, 19.4936
8.402789960, 18.870, 380.0, 19.4936
8.413656440, 18.870, 394.0, 19.8494
8.424522920, 18.870, 382.0, 19.5448
8.435389400, 18.870, 359.0, 18.9473
8.446255880, 18.870, 349.0, 18.6815
8.457122360, 18.870, 400.0, 20.0000
8.467988840, 18.870, 381.0, 19.5192
8.478855320, 18.870, 391.0, 19.7737
8.489721800, 18.870, 398.0, 19.9499
8.500588280, 18.870, 410.0, 20.2485
8.511454760, 18.870, 382.0, 19.5448
8.522321240, 18.870, 388.0, 19.6977
8.533187720, 18.870, 385.0, 19.6214
8.544054200, 18.870, 428.0, 20.6882
8.554920680, 18.870, 453.0, 21.2838
8.565787160, 18.870, 453.0, 21.2838
8.576653640, 18.870, 460.0, 21.4476
8.587520120, 18.870, 449.0, 21.1896
8.598386600, 18.870, 486.0, 22.0454
8.609253080, 18.870, 494.0, 22.2261
8.620119560, 18.870, 533.0, 23.0868
8.630986040, 18.870, 508.0, 22.5389
8.641852520, 18.870, 503.0, 22.4277
8.652719000, 18.870, 552.0, 23.4947
8.663585480, 18.870, 555.0, 23.5584
8.674451960, 18.870, 586.0, 24.2074
8.685318440, 18.870, 617.0, 24.8395
8.696184920, 18.870, 607.0, 24.6374
8.707051400, 18.870, 581.0, 24.1039
8.717917880, 18.870, 663.0, 25.7488
8.728784360, 18.870, 658.0, 25.6515
8.739650840, 18.870, 660.0, 25.6905
8.750517320, 18.870, 704.0, 26.5330
8.761383800, 18.870, 709.0, 26.6271
8.772250280, 18.870, 785.0, 28.0179
8.783116760, 18.870, 801.0, 28.3019
8.793983240, 18.870, 861.0, 29.3428
8.804849720, 18.870, 925.0, 30.4138
8.815716200, 18.870, 952.0, 30.8545
8.826582680, 18.870, 971.0, 31.1609
8.837449160, 18.870, 1031.0, 32.1092
8.848315640, 18.870, 1136.0, 33.7046
8.859182120, 18.870, 1218.0, 34.8999
8.870048600, 18.870, 1214.0, 34.8425
8.880915080, 18.870, 1349.0, 36.7287
8.891781560, 18.870, 1515.0, 38.9230
8.902648040, 18.870, 1590.0, 39.8748
8.913514520, 18.870, 1699.0, 41.2189
8.924381000, 18.870, 1795.0, 42.3674
8.935247480, 18.870, 1895.0, 43.5316
8.946113960, 18.870, 2023.0, 44.9778
8.956980440, 18.870, 1987.0, 44.5758
8.967846920, 18.870, 2166.0, 46.5403
8.978713400, 18.870, 2221.0, 47.1275
8.989579880, 18.870, 2231.0, 47.2335
9.000446360, 18.870, 2298.0, 47.9375
9.011312840, 18.870, 2310.0, 48.0625
9.022179320, 18.870, 2302.0, 47.9792
9.033045800, 18.870, 2391.0, 48.8979
9.043912280, 18.870, 2298.0, 47.9375
9.054778760, 18.870, 2357.0, 48.5489
9.065645240, 18.870, 2332.0, 48.2908
9.076511720, 18.870, 2207.0, 46.9787
9.087378200, 18.870, 2105.0, 45.8803
9.098244680, 18.870, 1950.0, 44.1588
9.109111160, 18.870, 1870.0, 43.2435
9.119977640, 18.870, 1690.0, 41.1096
9.130844120, 18.870, 1528.0, 39.0896
9.141710600, 18.870, 1391.0, 37.2961
9.152577080, 18.870, 1189.0, 34.4819
9.163443560, 18.870, 1100.0, 33.1662
9.174310040, 18.870, 988.0, 31.4325
9.185176520, 18.870, 890.0, 29.8329
9.196043000, 18.870, 846.0, 29.0861
9.206909480, 18.870, 813.0, 28.5132
9.217775960, 18.870, 759.0, 27.5500
9.228642440, 18.870, 697.0, 26.4008
9.239508920, 18.870, 642.0, 25.3377
9.250375400, 18.870, 610.0, 24.6982
9.261241880, 18.870, 559.0, 23.6432
9.272108360, 18.870, 522.0, 22.8473
9.282974840, 18.870, 506.0, 22.4944
9.293841320, 18.870, 462.0, 21.4942
9.304707800, 18.870, 463.0, 21.5174
9.315574280, 18.870, 455.0, 21.3307
9.326440760, 18.870, 451.0, 21.2368
9.337307240, 18.870, 402.0, 20.0499
9.348173720, 18.870, 385.0, 19.6214
9.359040200, 18.870, 385.0, 19.6214
9.369906680, 18.870, 356.0, 18.8680
9.380773160, 18.870, 382.0, 19.5448
9.391639640, 18.870, 378.0, 19.4422
9.402506120, 18.870, 338.0, 18.3848
9.413372600, 18.870, 373.0, 19.3132
9.424239080, 18.870, 334.0, 18.2757
9.435105560, 18.870, 347.0, 18.6279
9.445972040, 18.870, 357.0, 18.8944
9.456838520, 18.870, 345.0, 18.5742
9.467705000, 18.870, 315.0, 17.7482
9.478571480, 18.870, 355.0, 18.8414
9.489437960, 18.870, 320.0, 17.8885
9.500304440, 18.870, 314.0, 17.7200
9.511170920, 18.870, 333.0, 18.2483
9.522037400, 18.870, 324.0, 18.0000
9.532903880, 18.870, 331.0, 18.1934
9.543770360, 18.870, 356.0, 18.8680
9.554636840, 18.870, 315.0, 17.7482
9.565503320, 18.870, 325.0, 18.0278
9.576369800, 18.870, 345.0, 18.5742
9.587236280, 18.870, 314.0, 17.7200
9.598102760, 18.870, 320.0, 17.8885
9.608969240, 18.870, 296.0, 17.2047
9.619835720, 18.870, 310.0, 17.6068
9.630702200, 18.870, 350.0, 18.7083
9.641568680, 18.870, 302.0, 17.3781
9.652435160, 18.870, 311.0, 17.6352
9.663301640, 18.870, 331.0, 18.1934
9.674168120, 18.870, 332.0, 18.2209
9.685034600, 18.870, 326.0, 18.0555
9.695901080, 18.870, 316.0, 17.7764
9.706767560, 18.870, 332.0, 18.2209
9.717634040, 18.870, 329.0, 18.1384
9.728500520, 18.870, 314.0, 17.7200
9.739367000, 18.870, 318.0, 17.8326
9.750233480, 18.870, 342.0, 18.4932
9.761099960, 18.870, 328.0, 18.1108
9.771966440, 18.870, 360.0, 18.9737
9.782832920, 18.870, 305.0, 17.4642
9.793699400, 18.870, 300.0, 17.3205
9.804565880, 18.870, 302.0, 17.3781
9.815432360, 18.870, 312.0, 17.6635
9.826298840, 18.870, 313.0, 17.6918
9.837165320, 18.870, 333.0, 18.2483
9.848031800, 18.870, 323.0, 17.9722
9.858898280, 18.870, 317.0, 17.8045
9.869764760, 18.870, 314.0, 17.7200
9.880631240, 18.870, 291.0, 17.0587
9.891497720, 18.870, 309.0, 17.5784
9.902364200, 18.870, 343.0, 18.5203
9.913230680, 18.870, 314.0, 17.7200
9.924097160, 18.870, 316.0, 17.7764
9.934963640, 18.870, 310.0, 17.6068
9.945830120, 18.870, 317.0, 17.8045
9.956696600, 18.870, 333.0, 18.2483
9.967563080, 18.870, 329.0, 18.1384
9.978429560, 18.870, 378.0, 19.4422
9.989296040, 18.870, 341.0, 18.4662
10.000162520, 18.870, 362.0, 19.0263
10.011029000, 18.870, 344.0, 18.5472
10.021895480, 18.870, 394.0, 19.8494
10.032761960, 18.870, 367.0, 19.1572
10.043628440, 18.870, 366.0, 19.1311
10.054494920, 18.870, 390.0, 19.7484
10.065361400, 18.870, 372.0, 19.2873
10.076227880, 18.870, 406.0, 20.1494
10.087094360, 18.870, 419.0, 20.4695
10.097960840, 18.870, 419.0, 20.4695
10.108827320, 18.870, 409.0, 20.2237
10.119693800, 18.870, 489.0, 22.1133
10.130560280, 18.870, 431.0, 20.7605
10.141426760, 18.870, 489.0, 22.1133
10.152293240, 18.870, 492.0, 22.1811
10.163159720, 18.870, 513.0, 22.6495
10.174026200, 18.870, 512.0, 22.6274
10.184892680, 18.870, 545.0, 23.3452
10.195759160, 18.870, 551.0, 23.4734
10.206625640, 18.870, 567.0, 23.8118
10.217492120, 18.870, 564.0, 23.7487
10.228358600, 18.870, 562.0, 23.7065
10.239225080, 18.870, 597.0, 24.4336
10.250091560, 18.870, 651.0, 25.5147
10.260958040, 18.870, 714.0, 26.7208
10.271824520, 18.870, 762.0, 27.6043
10.282691000, 18.870, 675.0, 25.9808
10.293557480, 18.870, 731.0, 27.0370
10.304423960, 18.870, 854.0, 29.2233
10.315290440, 18.870, 860.0, 29.3258
10.326156920, 18.870, 933.0, 30.5450
10.337023400, 18.870, 963.0, 31.0322
10.347889880, 18.870, 1055.0, 32.4808
10.358756360, 18.870, 1078.0, 32.8329
10.369622840, 18.870, 1184.0, 34.4093
10.380489320, 18.870, 1332.0, 36.4966
10.391355800, 18.870, 1395.0, 37.3497
10.402222280, 18.870, 1457.0, 38.1707
10.413088760, 18.870, 1578.0, 39.7240
10.423955240, 18.870, 1646.0, 40.5709
10.434821720, 18.870, 1718.0, 41.4488
10.445688200, 18.870, 1812.0, 42.5676
10.456554680, 18.870, 1960.0, 44.2719
10.467421160, 18.870, 1940.0, 44.0454
10.478287640, 18.870, 2070.0, 45.4973
10.489154120, 18.870, 2073.0, 45.5302
10.500020600, 18.870, 2155.0, 46.4220
10.510887080, 18.870, 2046.0, 45.2327
10.521753560, 18.870, 2154.0, 46.4112
10.532620040, 18.870, 2134.0, 46.1952
10.543486520, 18.870, 2127.0, 46.1194
10.554353000, 18.870, 2133.0, 46.1844
10.565219480, 18.870, 2094.0, 45.7602
10.576085960, 18.870, 2089.0, 45.7056
10.586952440, 18.870, 1999.0, 44.7102
10.597818920, 18.870, 1833.0, 42.8135
10.608685400, 18.870, 1763.0, 41.9881
10.619551880, 18.870, 1653.0, 40.6571
10.630418360, 18.870, 1479.0, 38.4578
10.641284840, 18.870, 1412.0, 37.5766
10.652151320, 18.870, 1236.0, 35.1568
10.663017800, 18.870, 1104.0, 33.2265
10.673884280, 18.870, 1041.0, 32.2645
10.684750760, 18.870, 867.0, 29.4449
10.695617240, 18.870, 872.0, 29.5296
10.706483720, 18.870, 766.0, 27.6767
10.717350200, 18.870, 670.0, 25.8844
10.728216680, 18.870, 697.0, 26.4008
10.739083160, 18.870, 591.0, 24.3105
10.749949640, 18.870, 579.0, 24.0624
10.760816120, 18.870, 570.0, 23.8747
10.771682600, 18.870, 550.0, 23.4521
10.782549080, 18.870, 512.0, 22.6274
10.793415560, 18.870, 452.0, 21.2603
10.804282040, 18.870, 464.0, 21.5407
10.815148520, 18.870, 428.0, 20.6882
10.826015000, 18.870, 377.0, 19.4165
10.836881480, 18.870, 357.0, 18.8944
10.847747960, 18.870, 392.0, 19.7990
10.858614440, 18.870, 351.0, 18.7350
10.869480920, 18.870, 377.0, 19.4165
10.880347400, 18.870, 348.0, 18.6548
10.891213880, 18.870, 366.0, 19.1311
10.902080360, 18.870, 319.0, 17.8606
10.912946840, 18.870, 317.0, 17.8045
10.923813320, 18.870, 298.0, 17.2627
10.934679800, 18.870, 309.0, 17.5784
10.945546280, 18.870, 341.0, 18.4662
10.956412760, 18.870, 294.0, 17.1464
10.967279240, 18.870, 293.0, 17.1172
10.978145720, 18.870, 293.0, 17.1172
10.989012200, 18.870, 295.0, 17.1756
10.999878680, 18.870, 303.0, 17.4069
11.010745160, 18.870, 303.0, 17.4069
11.021611640, 18.870, 306.0, 17.4929
11.032478120, 18.870, 292.0, 17.0880
11.043344600, 18.870, 294.0, 17.1464
11.054211080, 18.870, 299.0, 17.2916
11.065077560, 18.870, 273.0, 16.5227
11.075944040, 18.870, 302.0, 17.3781
11.086810520, 18.870, 287.0, 16.9411
11.097677000, 18.870, 264.0, 16.2481
11.108543480, 18.870, 280.0, 16.7332
11.119409960, 18.870, 259.0, 16.0935
11.130276440, 18.870, 279.0, 16.7033
11.141142920, 18.870, 261.0, 16.1555
11.152009400, 18.870, 272.0, 16.4924
11.162875880, 18.870, 272.0, 16.4924
11.173742360, 18.870, 249.0, 15.7797
11.184608840, 18.870, 281.0, 16.7631
11.195475320, 18.870, 292.0, 17.0880
11.206341800, 18.870, 297.0, 17.2337
11.217208280, 18.870, 295.0, 17.1756
11.228074760, 18.870, 272.0, 16.4924
11.238941240, 18.870, 274.0, 16.5529
11.249807720, 18.870, 288.0, 16.9706
11.260674200, 18.870, 242.0, 15.5563
11.271540680, 18.870, 282.0, 16.7929
11.282407160, 18.870, 234.0, 15.2971
11.293273640, 18.870, 289.0, 17.0000
11.304140120, 18.870, 247.0, 15.7162
11.315006600, 18.870, 244.0, 15.6205
11.325873080, 18.870, 308.0, 17.5499
11.336739560, 18.870, 264.0, 16.2481
11.347606040, 18.870, 293.0, 17.1172
11.358472520, 18.870, 249.0, 15.7797
11.369339000, 18.870, 265.0, 16.2788
11.380205480, 18.870, 267.0, 16.3401
11.391071960, 18.870, 296.0, 17.2047
11.401938440, 18.870, 269.0, 16.4012
11.412804920, 18.870, 269.0, 16.4012
11.423671400, 18.870, 289.0, 17.0000
11.434537880, 18.870, 280.0, 16.7332
11.445404360, 18.870, 263.0, 16.2173
11.456270840, 18.870, 278.0, 16.6733
11.467137320, 18.870, 239.0, 15.4596
11.478003800, 18.870, 274.0, 16.5529
11.488870280, 18.870, 299.0, 17.2916
11.499736760, 18.870, 309.0, 17.5784
11.510603240, 18.870, 290.0, 17.0294
11.521469720, 18.870, 280.0, 16.7332
11.532336200, 18.870, 284.0, 16.8523
11.543202680, 18.870, 290.0, 17.0294
11.554069160, 18.870, 324.0, 18.0000
11.564935640, 18.870, 311.0, 17.6352
11.575802120, 18.870, 289.0, 17.0000
11.586668600, 18.870, 313.0, 17.6918
11.597535080, 18.870, 320.0, 17.8885
11.608401560, 18.870, 283.0, 16.8226
11.619268040, 18.870, 312.0, 17.6635
11.630134520, 18.870, 308.0, 17.5499
11.641001000, 18.870, 316.0, 17.7764
11.651867480, 18.870, 295.0, 17.1756
11.662733960, 18.870, 322.0, 17.9444
11.673600440, 18.870, 311.0, 17.6352
11.684466920, 18.870, 332.0, 18.2209
11.695333400, 18.870, 329.0, 18.1384
11.706199880, 18.870, 320.0, 17.8885
11.717066360, 18.870, 349.0, 18.6815
11.727932840, 18.870, 352.0, 18.7617
11.738799320, 18.870, 326.0, 18.0555
11.749665800, 18.870, 366.0, 19.1311
11.760532280, 18.870, 339.0, 18.4120
11.771398760, 18.870, 399.0, 19.9750
11.782265240, 18.870, 391.0, 19.7737
11.793131720, 18.870, 412.0, 20.2978
11.803998200, 18.870, 400.0, 20.0000
11.814864680, 18.870, 456.0, 21.3542
11.825731160, 18.870, 474.0, 21.7715
11.836597640, 18.870, 500.0, 22.3607
11.847464120, 18.870, 513.0, 22.6495
11.858330600, 18.870, 528.0, 22.9783
11.869197080, 18.870, 571.0, 23.8956
11.880063560, 18.870, 638.0, 25.2587
11.890930040, 18.870, 649.0, 25.4755
11.901796520, 18.870, 643.0, 25.3574
11.912663000, 18.870, 699.0, 26.4386
11.923529480, 18.870, 742.0, 27.2397
11.934395960, 18.870, 822.0, 28.6705
11.945262440, 18.870, 850.0, 29.1548
11.956128920, 18.870, 830.0, 28.8097
11.966995400, 18.870, 904.0, 30.0666
11.977861880, 18.870, 980.0, 31.3050
11.988728360, 18.870, 926.0, 30.4302
11.999594840, 18.870, 963.0, 31.0322
12.010461320, 18.870, 1015.0, 31.8591
12.021327800, 18.870, 962.0, 31.0161
12.032194280, 18.870, 945.0, 30.7409
12.043060760, 18.870, 996.0, 31.5595
12.053927240, 18.870, 989.0, 31.4484
12.064793720, 18.870, 958.0, 30.9516
12.075660200, 18.870, 906.0, 30.0998
12.086526680, 18.870, 903.0, 30.0500
12.097393160, 18.870, 919.0, 30.3150
12.108259640, 18.870, 844.0, 29.0517
12.119126120, 18.870, 832.0, 28.8444
12.129992600, 18.870, 784.0, 28.0000
12.140859080, 18.870, 709.0, 26.6271
12.151725560, 18.870, 695.0, 26.3629
12.162592040, 18.870, 640.0, 25.2982
12.173458520, 18.870, 590.0, 24.2899
12.184325000, 18.870, 556.0, 23.5797
12.195191480, 18.870, 530.0, 23.0217
12.206057960, 18.870, 511.0, 22.6053
12.216924440, 18.870, 409.0, 20.2237
12.227790920, 18.870, 426.0, 20.6398
12.238657400, 18.870, 405.0, 20.1246
12.249523880, 18.870, 374.0, 19.3391
12.260390360, 18.870, 385.0, 19.6214
12.271256840, 18.870, 412.0, 20.2978
12.282123320, 18.870, 353.0, 18.7883
12.292989800, 18.870, 339.0, 18.4120
12.303856280, 18.870, 380.0, 19.4936
12.314722760, 18.870, 327.0, 18.0831
12.325589240, 18.870, 343.0, 18.5203
12.336455720, 18.870, 333.0, 18.2483
12.347322200, 18.870, 326.0, 18.0555
12.358188680, 18.870, 280.0, 16.7332
12.369055160, 18.870, 273.0, 16.5227
12.379921640, 18.870, 302.0, 17.3781
12.390788120, 18.870, 297.0, 17.2337
12.401654600, 18.870, 288.0, 16.9706
12.412521080, 18.870, 260.0, 16.1245
12.423387560, 18.870, 291.0, 17.0587
12.434254040, 18.870, 261.0, 16.1555
12.445120520, 18.870, 285.0, 16.8819
12.455987000, 18.870, 281.0, 16.7631
12.466853480, 18.870, 248.0, 15.7480
12.477719960, 18.870, 259.0, 16.0935
12.488586440, 18.870, 244.0, 15.6205
12.499452920, 18.870, 274.0, 16.5529
12.510319400, 18.870, 263.0, 16.2173
12.521185880, 18.870, 257.0, 16.0312
12.532052360, 18.870, 257.0, 16.0312
12.542918840, 18.870, 248.0, 15.7480
12.553785320, 18.870, 245.0, 15.6525
12.564651800, 18.870, 222.0, 14.8997
12.575518280, 18.870, 267.0, 16.3401
12.586384760, 18.870, 272.0, 16.4924
12.597251240, 18.870, 246.0, 15.6844
12.608117720, 18.870, 248.0, 15.7480
12.618984200, 18.870, 236.0, 15.3623
12.629850680, 18.870, 213.0, 14.5945
12.640717160, 18.870, 239.0, 15.4596
12.651583640, 18.870, 239.0, 15.4596
12.662450120, 18.870, 248.0, 15.7480
12.673316600, 18.870, 235.0, 15.3297
12.684183080, 18.870, 233.0, 15.2643
12.695049560, 18.870, 271.0, 16.4621
12.705916040, 18.870, 274.0, 16.5529
12.716782520, 18.870, 223.0, 14.9332
12.727649000, 18.870, 242.0, 15.5563
12.738515480, 18.870, 239.0, 15.4596
12.749381960, 18.870, 262.0, 16.1864
12.760248440, 18.870, 245.0, 15.6525
12.771114920, 18.870, 246.0, 15.6844
12.781981400, 18.870, 236.0, 15.3623
12.792847880, 18.870, 261.0, 16.1555
12.803714360, 18.870, 296.0, 17.2047
12.814580840, 18.870, 259.0, 16.0935
12.825447320, 18.870, 259.0, 16.0935
12.836313800, 18.870, 234.0, 15.2971
12.847180280, 18.870, 257.0, 16.0312
12.858046760, 18.870, 243.0, 15.5885
12.868913240, 18.870, 264.0, 16.2481
12.879779720, 18.870, 278.0, 16.6733
12.890646200, 18.870, 232.0, 15.2315
12.901512680, 18.870, 246.0, 15.6844
12.912379160, 18.870, 257.0, 16.0312
12.923245640, 18.870, 246.0, 15.6844
12.934112120, 18.870, 237.0, 15.3948
12.944978600, 18.870, 259.0, 16.0935
12.955845080, 18.870, 267.0, 16.3401
12.966711560, 18.870, 234.0, 15.2971
12.977578040, 18.870, 276.0, 16.6132
12.988444520, 18.870, 256.0, 16.0000
12.999311000, 18.870, 240.0, 15.4919
13.010177480, 18.870, 268.0, 16.3707
13.021043960, 18.870, 234.0, 15.2971
13.031910440, 18.870, 269.0, 16.4012
13.042776920, 18.870, 270.0, 16.4317
13.053643400, 18.870, 270.0, 16.4317
13.064509880, 18.870, 263.0, 16.2173
13.075376360, 18.870, 237.0, 15.3948
13.086242840, 18.870, 258.0, 16.0624
13.097109320, 18.870, 278.0, 16.6733
13.107975800, 18.870, 307.0, 17.5214
13.118842280, 18.870, 300.0, 17.3205
13.129708760, 18.870, 305.0, 17.4642
13.140575240, 18.870, 282.0, 16.7929
13.151441720, 18.870, 298.0, 17.2627
13.162308200, 18.870, 287.0, 16.9411
13.173174680, 18.870, 299.0, 17.2916
13.184041160, 18.870, 306.0, 17.4929
13.194907640, 18.870, 292.0, 17.0880
13.205774120, 18.870, 350.0, 18.7083
13.216640600, 18.870, 301.0, 17.3494
13.227507080, 18.870, 323.0, 17.9722
13.238373560, 18.870, 347.0, 18.6279
13.249240040, 18.870, 357.0, 18.8944
13.260106520, 18.870, 375.0, 19.3649
13.270973000, 18.870, 369.0, 19.2094
13.281839480, 18.870, 359.0, 18.9473
13.292705960, 18.870, 416.0, 20.3961
13.303572440, 18.870, 401.0, 20.0250
13.314438920, 18.870, 442.0, 21.0238
13.325305400, 18.870, 474.0, 21.7715
13.336171880, 18.870, 432.0, 20.7846
13.347038360, 18.870, 466.0, 21.5870
13.357904840, 18.870, 531.0, 23.0434
13.368771320, 18.870, 518.0, 22.7596
13.379637800, 18.870, 608.0, 24.6577
13.390504280, 18.870, 590.0, 24.2899
13.401370760, 18.870, 608.0, 24.6577
13.412237240, 18.870, 676.0, 26.0000
13.423103720, 18.870, 697.0, 26.4008
13.433970200, 18.870, 787.0, 28.0535
13.444836680, 18.870, 805.0, 28.3725
13.455703160, 18.870, 826.0, 28.7402
13.466569640, 18.870, 887.0, 29.7825
13.477436120, 18.870, 962.0, 31.0161
13.488302600, 18.870, 951.0, 30.8383
13.499169080, 18.870, 1008.0, 31.7490
13.510035560, 18.870, 983.0, 31.3528
13.520902040, 18.870, 986.0, 31.4006
13.531768520, 18.870, 1015.0, 31.8591
13.542635000, 18.870, 1001.0, 31.6386
13.553501480, 18.870, 968.0, 31.1127
13.564367960, 18.870, 1024.0, 32.0000
13.575234440, 18.870, 982.0, 31.3369
13.586100920, 18.870, 950.0, 30.8221
13.596967400, 18.870, 972.0, 31.1769
13.607833880, 18.870, 926.0, 30.4302
13.618700360, 18.870, 915.0, 30.2490
13.629566840, 18.870, 824.0, 28.7054
13.640433320, 18.870, 773.0, 27.8029
13.651299800, 18.870, 814.0, 28.5307
13.662166280, 18.870, 689.0, 26.2488
13.673032760, 18.870, 695.0, 26.3629
13.683899240, 18.870, 627.0, 25.0400
13.694765720, 18.870, 597.0, 24.4336
13.705632200, 18.870, 499.0, 22.3383
13.716498680, 18.870, 507.0, 22.5167
13.727365160, 18.870, 460.0, 21.4476
13.738231640, 18.870, 433.0, 20.8087
13.749098120, 18.870, 424.0, 20.5913
13.759964600, 18.870, 384.0, 19.5959
13.770831080, 18.870, 392.0, 19.7990
13.781697560, 18.870, 361.0, 19.0000
13.792564040, 18.870, 371.0, 19.2614
13.803430520, 18.870, 311.0, 17.6352
13.814297000, 18.870, 297.0, 17.2337
13.825163480, 18.870, 297.0, 17.2337
13.836029960, 18.870, 294.0, 17.1464
13.846896440, 18.870, 283.0, 16.8226
13.857762920, 18.870, 237.0, 15.3948
13.868629400, 18.870, 312.0, 17.6635
13.879495880, 18.870, 238.0, 15.4272
13.890362360, 18.870, 247.0, 15.7162
13.901228840, 18.870, 242.0, 15.5563
13.912095320, 18.870, 239.0, 15.4596
13.922961800, 18.870, 265.0, 16.2788
13.933828280, 18.870, 246.0, 15.6844
13.944694760, 18.870, 266.0, 16.3095
13.955561240, 18.870, 210.0, 14.4914
13.966427720, 18.870, 264.0, 16.2481
13.977294200, 18.870, 212.0, 14.5602
13.988160680, 18.870, 273.0, 16.5227
13.999027160, 18.870, 246.0, 15.6844
14.009893640, 18.870, 267.0, 16.3401
14.020760120, 18.870, 245.0, 15.6525
14.031626600, 18.870, 228.0, 15.0997
14.042493080, 18.870, 231.0, 15.1987
14.053359560, 18.870, 275.0, 16.5831
14.064226040, 18.870, 243.0, 15.5885
14.075092520, 18.870, 244.0, 15.6205
14.085959000, 18.870, 209.0, 14.4568
14.096825480, 18.870, 226.0, 15.0333
14.107691960, 18.870, 217.0, 14.7309
14.118558440, 18.870, 234.0, 15.2971
14.129424920, 18.870, 222.0, 14.8997
14.140291400, 18.870, 234.0, 15.2971
14.151157880, 18.870, 208.0, 14.4222
14.162024360, 18.870, 217.0, 14.7309
14.172890840, 18.870, 225.0, 15.0000
14.183757320, 18.870, 247.0, 15.7162
14.194623800, 18.870, 241.0, 15.5242
14.205490280, 18.870, 257.0, 16.0312
14.216356760, 18.870, 232.0, 15.2315
14.227223240, 18.870, 217.0, 14.7309
14.238089720, 18.870, 228.0, 15.0997
14.248956200, 18.870, 219.0, 14.7986
14.259822680, 18.870, 210.0, 14.4914
14.270689160, 18.870, 235.0, 15.3297
14.281555640, 18.870, 225.0, 15.0000
14.292422120, 18.870, 248.0, 15.7480
14.303288600, 18.870, 230.0, 15.1658
14.314155080, 18.870, 201.0, 14.1774
14.325021560, 18.870, 200.0, 14.1421
14.335888040, 18.870, 231.0, 15.1987
14.346754520, 18.870, 237.0, 15.3948
14.357621000, 18.870, 220.0, 14.8324
14.368487480, 18.870, 234.0, 15.2971
14.379353960, 18.870, 230.0, 15.1658
14.390220440, 18.870, 216.0, 14.6969
14.401086920, 18.870, 198.0, 14.0712
14.411953400, 18.870, 233.0, 15.2643
14.422819880, 18.870, 191.0, 13.8203
14.433686360, 18.870, 240.0, 15.4919
14.444552840, 18.870, 231.0, 15.1987
14.455419320, 18.870, 234.0, 15.2971
14.466285800, 18.870, 231.0, 15.1987
14.477152280, 18.870, 239.0, 15.4596
14.488018760, 18.870, 209.0, 14.4568
14.498885240, 18.870, 246.0, 15.6844
14.509751720, 18.870, 216.0, 14.6969
14.520618200, 18.870, 263.0, 16.2173
14.531484680, 18.870, 262.0, 16.1864
14.542351160, 18.870, 275.0, 16.5831
14.553217640, 18.870, 272.0, 16.4924
14.564084120, 18.870, 216.0, 14.6969
14.574950600, 18.870, 207.0, 14.3875
14.585817080, 18.870, 217.0, 14.7309
14.596683560, 18.870, 216.0, 14.6969
14.607550040, 18.870, 220.0, 14.8324
14.618416520, 18.870, 248.0, 15.7480
14.629283000, 18.870, 277.0, 16.6433
14.640149480, 18.870, 205.0, 14.3178
14.651015960, 18.870, 248.0, 15.7480
14.661882440, 18.870, 271.0, 16.4621
14.672748920, 18.870, 226.0, 15.0333
14.683615400, 18.870, 231.0, 15.1987
14.694481880, 18.870, 260.0, 16.1245
14.705348360, 18.870, 230.0, 15.1658
14.716214840, 18.870, 257.0, 16.0312
14.727081320, 18.870, 224.0, 14.9666
14.737947800, 18.870, 246.0, 15.6844
14.748814280, 18.870, 282.0, 16.7929
14.759680760, 18.870, 245.0, 15.6525
14.770547240, 18.870, 267.0, 16.3401
14.781413720, 18.870, 264.0, 16.2481
14.792280200, 18.870, 250.0, 15.8114
14.803146680, 18.870, 258.0, 16.0624
14.814013160, 18.870, 305.0, 17.4642
14.824879640, 18.870, 284.0, 16.8523
14.835746120, 18.870, 256.0, 16.0000
14.846612600, 18.870, 303.0, 17.4069
14.857479080, 18.870, 260.0, 16.1245
14.868345560, 18.870, 291.0, 17.0587
14.879212040, 18.870, 297.0, 17.2337
14.890078520, 18.870, 304.0, 17.4356
14.900945000, 18.870, 336.0, 18.3303
14.911811480, 18.870, 309.0, 17.5784
14.922677960, 18.870, 362.0, 19.0263
14.933544440, 18.870, 368.0, 19.1833
14.944410920, 18.870, 372.0, 19.2873
14.955277400, 18.870, 357.0, 18.8944
14.966143880, 18.870, 360.0, 18.9737
14.977010360, 18.870, 415.0, 20.3715
14.987876840, 18.870, 429.0, 20.7123
14.998743320, 18.870, 433.0, 20.8087
15.009609800, 18.870, 445.0, 21.0950
15.020476280, 18.870, 443.0, 21.0476
15.031342760, 18.870, 502.0, 22.4054
15.042209240, 18.870, 504.0, 22.4499
15.053075720, 18.870, 469.0, 21.6564
15.063942200, 18.870, 460.0, 21.4476
15.074808680, 18.870, 484.0, 22.0000
15.085675160, 18.870, 467.0, 21.6102
15.096541640, 18.870, 485.0, 22.0227
15.107408120, 18.870, 472.0, 21.7256
15.118274600, 18.870, 465.0, 21.5639
15.129141080, 18.870, 428.0, 20.6882
15.140007560, 18.870, 434.0, 20.8327
15.150874040, 18.870, 444.0, 21.0713
15.161740520, 18.870, 422.0, 20.5426
15.172607000, 18.870, 368.0, 19.1833
15.183473480, 18.870, 362.0, 19.0263
15.194339960, 18.870, 357.0, 18.8944
15.205206440, 18.870, 333.0, 18.2483
15.216072920, 18.870, 350.0, 18.7083
15.226939400, 18.870, 308.0, 17.5499
15.237805880, 18.870, 277.0, 16.6433
15.248672360, 18.870, 269.0, 16.4012
15.259538840, 18.870, 271.0, 16.4621
15.270405320, 18.870, 241.0, 15.5242
15.281271800, 18.870, 248.0, 15.7480
15.292138280, 18.870, 263.0, 16.2173
15.303004760, 18.870, 243.0, 15.5885
15.313871240, 18.870, 260.0, 16.1245
15.324737720, 18.870, 280.0, 16.7332
15.335604200, 18.870, 233.0, 15.2643
15.346470680, 18.870, 257.0, 16.0312
15.357337160, 18.870, 224.0, 14.9666
15.368203640, 18.870, 231.0, 15.1987
15.379070120, 18.870, 247.0, 15.7162
15.389936600, 18.870, 236.0, 15.3623
15.400803080, 18.870, 230.0, 15.1658
15.411669560, 18.870, 213.0, 14.5945
15.422536040, 18.870, 225.0, 15.0000
15.433402520, 18.870, 234.0, 15.2971
15.444269000, 18.870, 231.0, 15.1987
15.455135480, 18.870, 208.0, 14.4222
15.466001960, 18.870, 199.0, 14.1067
15.476868440, 18.870, 211.0, 14.5258
15.487734920, 18.870, 248.0, 15.7480
15.498601400, 18.870, 220.0, 14.8324
15.509467880, 18.870, 228.0, 15.0997
15.520334360, 18.870, 265.0, 16.2788
15.531200840, 18.870, 230.0, 15.1658
15.542067320, 18.870, 223.0, 14.9332
15.552933800, 18.870, 206.0, 14.3527
15.563800280, 18.870, 203.0, 14.2478
15.574666760, 18.870, 221.0, 14.8661
15.585533240, 18.870, 167.0, 12.9228
15.596399720, 18.870, 238.0, 15.4272
15.607266200, 18.870, 205.0, 14.3178
15.618132680, 18.870, 222.0, 14.8997
15.628999160, 18.870, 220.0, 14.8324
15.639865640, 18.870, 236.0, 15.3623
15.650732120, 18.870, 195.0, 13.9642
15.661598600, 18.870, 225.0, 15.0000
15.672465080, 18.870, 208.0, 14.4222
15.683331560, 18.870, 238.0, 15.4272
15.694198040, 18.870, 191.0, 13.8203
15.705064520, 18.870, 227.0, 15.0665
15.715931000, 18.870, 236.0, 15.3623
15.726797480, 18.870, 216.0, 14.6969
15.737663960, 18.870, 199.0, 14.1067
15.748530440, 18.870, 208.0, 14.4222
15.759396920, 18.870, 211.0, 14.5258
15.770263400, 18.870, 182.0, 13.4907
15.781129880, 18.870, 186.0, 13.6382
15.791996360, 18.870, 218.0, 14.7648
15.802862840, 18.870, 190.0, 13.7840
15.813729320, 18.870, 215.0, 14.6629
15.824595800, 18.870, 190.0, 13.7840
15.835462280, 18.870, 220.0, 14.8324
15.846328760, 18.870, 205.0, 14.3178
15.857195240, 18.870, 198.0, 14.0712
15.868061720, 18.870, 210.0, 14.4914
15.878928200, 18.870, 205.0, 14.3178
15.889794680, 18.870, 205.0, 14.3178
15.900661160, 18.870, 225.0, 15.0000
15.911527640, 18.870, 211.0, 14.5258
15.922394120, 18.870, 223.0, 14.9332
15.933260600, 18.870, 196.0, 14.0000
15.944127080, 18.870, 202.0, 14.2127
15.954993560, 18.870, 191.0, 13.8203
15.965860040, 18.870, 210.0, 14.4914
15.976726520, 18.870, 232.0, 15.2315
15.987593000, 18.870, 182.0, 13.4907
15.998459480, 18.870, 232.0, 15.2315
16.009325960, 18.870, 204.0, 14.2829
16.020192440, 18.870, 216.0, 14.6969
16.031058920, 18.870, 213.0, 14.5945
16.041925400, 18.870, 188.0, 13.7113
16.052791880, 18.870, 233.0, 15.2643
16.063658360, 18.870, 220.0, 14.8324
16.074524840, 18.870, 214.0, 14.6287
16.085391320, 18.870, 260.0, 16.1245
16.096257800, 18.870, 204.0, 14.2829
16.107124280, 18.870, 199.0, 14.1067
16.117990760, 18.870, 219.0, 14.7986
16.128857240, 18.870, 212.0, 14.5602
16.139723720, 18.870, 239.0, 15.4596
16.150590200, 18.870, 229.0, 15.1327
16.161456680, 18.870, 200.0, 14.1421
16.172323160, 18.870, 219.0, 14.7986
16.183189640, 18.870, 224.0, 14.9666
16.194056120, 18.870, 228.0, 15.0997
16.204922600, 18.870, 231.0, 15.1987
16.215789080, 18.870, 260.0, 16.1245
16.226655560, 18.870, 225.0, 15.0000
16.237522040, 18.870, 243.0, 15.5885
16.248388520, 18.870, 217.0, 14.7309
16.259255000, 18.870, 269.0, 16.4012
16.270121480, 18.870, 263.0, 16.2173
16.280987960, 18.870, 242.0, 15.5563
16.291854440, 18.870, 212.0, 14.5602
16.302720920, 18.870, 241.0, 15.5242
16.313587400, 18.870, 247.0, 15.7162
16.324453880, 18.870, 236.0, 15.3623
16.335320360, 18.870, 246.0, 15.6844
16.346186840, 18.870, 263.0, 16.2173
16.357053320, 18.870, 250.0, 15.8114
16.367919800, 18.870, 291.0, 17.0587
16.378786280, 18.870, 285.0, 16.8819
16.389652760, 18.870, 270.0, 16.4317
16.400519240, 18.870, 317.0, 17.8045
16.411385720, 18.870, 342.0, 18.4932
16.422252200, 18.870, 332.0, 18.2209
16.433118680, 18.870, 362.0, 19.0263
16.443985160, 18.870, 395.0, 19.8746
16.454851640, 18.870, 344.0, 18.5472
16.465718120, 18.870, 394.0, 19.8494
16.476584600, 18.870, 424.0, 20.5913
16.487451080, 18.870, 417.0, 20.4206
16.498317560, 18.870, 464.0, 21.5407
16.509184040, 18.870, 473.0, 21.7486
16.520050520, 18.870, 489.0, 22.1133
16.530917000, 18.870, 474.0, 21.7715
16.541783480, 18.870, 506.0, 22.4944
16.552649960, 18.870, 523.0, 22.8692
16.563516440, 18.870, 508.0, 22.5389
16.574382920, 18.870, 566.0, 23.7908
16.585249400, 18.870, 529.0, 23.0000
16.596115880, 18.870, 536.0, 23.1517
16.606982360, 18.870, 501.0, 22.3830
16.617848840, 18.870, 516.0, 22.7156
16.628715320, 18.870, 445.0, 21.0950
16.639581800, 18.870, 452.0, 21.2603
16.650448280, 18.870, 460.0, 21.4476
16.661314760, 18.870, 511.0, 22.6053
16.672181240, 18.870, 446.0, 21.1187
16.683047720, 18.870, 404.0, 20.0998
16.693914200, 18.870, 407.0, 20.1742
16.704780680, 18.870, 372.0, 19.2873
16.715647160, 18.870, 329.0, 18.1384
16.726513640, 18.870, 353.0, 18.7883
16.737380120, 18.870, 322.0, 17.9444
16.748246600, 18.870, 336.0, 18.3303
16.759113080, 18.870, 305.0, 17.4642
16.769979560, 18.870, 276.0, 16.6132
16.780846040, 18.870, 304.0, 17.4356
16.791712520, 18.870, 271.0, 16.4621
16.802579000, 18.870, 287.0, 16.9411
16.813445480, 18.870, 230.0, 15.1658
16.824311960, 18.870, 223.0, 14.9332
16.835178440, 18.870, 261.0, 16.1555
16.846044920, 18.870, 258.0, 16.0624
16.856911400, 18.870, 223.0, 14.9332
16.867777880, 18.870, 232.0, 15.2315
16.878644360, 18.870, 228.0, 15.0997
16.889510840, 18.870, 240.0, 15.4919
16.900377320, 18.870, 235.0, 15.3297
16.911243800, 18.870, 214.0, 14.6287
16.922110280, 18.870, 226.0, 15.0333
16.932976760, 18.870, 215.0, 14.6629
16.943843240, 18.870, 218.0, 14.7648
16.954709720, 18.870, 202.0, 14.2127
16.965576200, 18.870, 200.0, 14.1421
16.976442680, 18.870, 187.0, 13.6748
16.987309160, 18.870, 212.0, 14.5602
16.998175640, 18.870, 209.0, 14.4568
17.009042120, 18.870, 238.0, 15.4272
17.019908600, 18.870, 219.0, 14.7986
17.030775080, 18.870, 212.0, 14.5602
17.041641560, 18.870, 222.0, 14.8997
17.052508040, 18.870, 201.0, 14.1774
17.063374520, 18.870, 219.0, 14.7986
17.074241000, 18.870, 187.0, 13.6748
17.085107480, 18.870, 211.0, 14.5258
17.095973960, 18.870, 196.0, 14.0000
17.106840440, 18.870, 187.0, 13.6748
17.117706920, 18.870, 209.0, 14.4568
17.128573400, 18.870, 207.0, 14.3875
17.139439880, 18.870, 234.0, 15.2971
17.150306360, 18.870, 195.0, 13.9642
17.161172840, 18.870, 214.0, 14.6287
17.172039320, 18.870, 195.0, 13.9642
17.182905800, 18.870, 199.0, 14.1067
17.193772280, 18.870, 219.0, 14.7986
17.204638760, 18.870, 193.0, 13.8924
17.215505240, 18.870, 200.0, 14.1421
17.226371720, 18.870, 190.0, 13.7840
17.237238200, 18.870, 206.0, 14.3527
17.248104680, 18.870, 205.0, 14.3178
17.258971160, 18.870, 221.0, 14.8661
17.269837640, 18.870, 198.0, 14.0712
17.280704120, 18.870, 186.0, 13.6382
17.291570600, 18.870, 184.0, 13.5647
17.302437080, 18.870, 216.0, 14.6969
17.313303560, 18.870, 184.0, 13.5647
17.324170040, 18.870, 183.0, 13.5277
17.335036520, 18.870, 192.0, 13.8564
17.345903000, 18.870, 213.0, 14.5945
17.356769480, 18.870, 211.0, 14.5258
17.367635960, 18.870, 200.0, 14.1421
17.378502440, 18.870, 230.0, 15.1658
17.389368920, 18.870, 199.0, 14.1067
17.400235400, 18.870, 188.0, 13.7113
17.411101880, 18.870, 198.0, 14.0712
17.421968360, 18.870, 189.0, 13.7477
17.432834840, 18.870, 187.0, 13.6748
17.443701320, 18.870, 176.0, 13.2665
17.454567800, 18.870, 203.0, 14.2478
17.465434280, 18.870, 174.0, 13.1909
17.476300760, 18.870, 190.0, 13.7840
17.487167240, 18.870, 202.0, 14.2127
17.498033720, 18.870, 210.0, 14.4914
17.508900200, 18.870, 231.0, 15.1987
17.519766680, 18.870, 224.0, 14.9666
17.530633160, 18.870, 203.0, 14.2478
17.541499640, 18.870, 164.0, 12.8062
17.552366120, 18.870, 210.0, 14.4914
17.563232600, 18.870, 189.0, 13.7477
17.574099080, 18.870, 199.0, 14.1067
17.584965560, 18.870, 219.0, 14.7986
17.595832040, 18.870, 205.0, 14.3178
17.606698520, 18.870, 215.0, 14.6629
17.617565000, 18.870, 199.0, 14.1067
17.628431480, 18.870, 190.0, 13.7840
17.639297960, 18.870, 191.0, 13.8203
17.650164440, 18.870, 194.0, 13.9284
17.661030920, 18.870, 184.0, 13.5647
17.671897400, 18.870, 181.0, 13.4536
17.682763880, 18.870, 212.0, 14.5602
17.693630360, 18.870, 213.0, 14.5945
17.704496840, 18.870, 182.0, 13.4907
17.715363320, 18.870, 183.0, 13.5277
17.726229800, 18.870, 193.0, 13.8924
17.737096280, 18.870, 189.0, 13.7477
17.747962760, 18.870, 203.0, 14.2478
17.758829240, 18.870, 208.0, 14.4222
17.769695720, 18.870, 186.0, 13.6382
17.780562200, 18.870, 188.0, 13.7113
17.791428680, 18.870, 176.0, 13.2665
17.802295160, 18.870, 213.0, 14.5945
17.813161640, 18.870, 231.0, 15.1987
17.824028120, 18.870, 233.0, 15.2643
17.834894600, 18.870, 201.0, 14.1774
17.845761080, 18.870, 202.0, 14.2127
17.856627560, 18.870, 216.0, 14.6969
17.867494040, 18.870, 224.0, 14.9666
17.878360520, 18.870, 200.0, 14.1421
17.889227000, 18.870, 193.0, 13.8924
17.900093480, 18.870, 212.0, 14.5602
17.910959960, 18.870, 208.0, 14.4222
17.921826440, 18.870, 203.0, 14.2478
17.932692920, 18.870, 205.0, 14.3178
17.943559400, 18.870, 225.0, 15.0000
17.954425880, 18.870, 188.0, 13.7113
17.965292360, 18.870, 225.0, 15.0000
17.976158840, 18.870, 256.0, 16.0000
17.987025320, 18.870, 241.0, 15.5242
17.997891800, 18.870, 211.0, 14.5258
18.008758280, 18.870, 266.0, 16.3095
18.019624760, 18.870, 262.0, 16.1864
18.030491240, 18.870, 245.0, 15.6525
18.041357720, 18.870, 282.0, 16.7929
18.052224200, 18.870, 293.0, 17.1172
18.063090680, 18.870, 239.0, 15.4596
18.073957160, 18.870, 262.0, 16.1864
18.084823640, 18.870, 225.0, 15.0000
18.095690120, 18.870, 287.0, 16.9411
18.106556600, 18.870, 297.0, 17.2337
18.117423080, 18.870, 284.0, 16.8523
18.128289560, 18.870, 273.0, 16.5227
18.139156040, 18.870, 259.0, 16.0935
18.150022520, 18.870, 269.0, 16.4012
18.160889000, 18.870, 224.0, 14.9666
18.171755480, 18.870, 269.0, 16.4012
18.182621960, 18.870, 248.0, 15.7480
18.193488440, 18.870, 231.0, 15.1987
18.204354920, 18.870, 216.0, 14.6969
18.215221400, 18.870, 269.0, 16.4012
18.226087880, 18.870, 225.0, 15.0000
18.236954360, 18.870, 200.0, 14.1421
18.247820840, 18.870, 222.0, 14.8997
18.258687320, 18.870, 214.0, 14.6287
18.269553800, 18.870, 236.0, 15.3623
18.280420280, 18.870, 232.0, 15.2315
18.291286760, 18.870, 221.0, 14.8661
18.302153240, 18.870, 212.0, 14.5602
18.313019720, 18.870, 181.0, 13.4536
18.323886200, 18.870, 222.0, 14.8997
18.334752680, 18.870, 216.0, 14.6969
18.345619160, 18.870, 200.0, 14.1421
18.356485640, 18.870, 206.0, 14.3527
18.367352120, 18.870, 214.0, 14.6287
18.378218600, 18.870, 219.0, 14.7986
18.389085080, 18.870, 190.0, 13.7840
18.399951560, 18.870, 202.0, 14.2127
18.410818040, 18.870, 208.0, 14.4222
18.421684520, 18.870, 191.0, 13.8203
18.432551000, 18.870, 212.0, 14.5602
18.443417480, 18.870, 203.0, 14.2478
18.454283960, 18.870, 199.0, 14.1067
18.465150440, 18.870, 186.0, 13.6382
18.476016920, 18.870, 198.0, 14.0712
18.486883400, 18.870, 216.0, 14.6969
18.497749880, 18.870, 179.0, 13.3791
18.508616360, 18.870, 223.0, 14.9332
18.519482840, 18.870, 187.0, 13.6748
18.530349320, 18.870, 187.0, 13.6748
18.541215800, 18.870, 203.0, 14.2478
18.552082280, 18.870, 215.0, 14.6629
18.562948760, 18.870, 192.0, 13.8564
18.573815240, 18.870, 227.0, 15.0665
18.584681720, 18.870, 189.0, 13.7477
18.595548200, 18.870, 196.0, 14.0000
18.606414680, 18.870, 208.0, 14.4222
18.617281160, 18.870, 191.0, 13.8203
18.628147640, 18.870, 213.0, 14.5945
18.639014120, 18.870, 190.0, 13.7840
18.649880600, 18.870, 223.0, 14.9332
18.660747080, 18.870, 195.0, 13.9642
18.671613560, 18.870, 242.0, 15.5563
18.682480040, 18.870, 196.0, 14.0000
18.693346520, 18.870, 227.0, 15.0665
18.704213000, 18.870, 204.0, 14.2829
18.715079480, 18.870, 203.0, 14.2478
18.725945960, 18.870, 229.0, 15.1327
18.736812440, 18.870, 200.0, 14.1421
18.747678920, 18.870, 209.0, 14.4568
18.758545400, 18.870, 230.0, 15.1658
18.769411880, 18.870, 214.0, 14.6287
18.780278360, 18.870, 211.0, 14.5258
18.791144840, 18.870, 205.0, 14.3178
18.802011320, 18.870, 209.0, 14.4568
18.812877800, 18.870, 227.0, 15.0665
18.823744280, 18.870, 234.0, 15.2971
18.834610760, 18.870, 270.0, 16.4317
18.845477240, 18.870, 221.0, 14.8661
18.856343720, 18.870, 240.0, 15.4919
18.867210200, 18.870, 248.0, 15.7480
18.878076680, 18.870, 239.0, 15.4596
18.888943160, 18.870, 240.0, 15.4919
18.899809640, 18.870, 227.0, 15.0665
18.910676120, 18.870, 228.0, 15.0997
18.921542600, 18.870, 243.0, 15.5885
18.932409080, 18.870, 277.0, 16.6433
18.943275560, 18.870, 269.0, 16.4012
18.954142040, 18.870, 271.0, 16.4621
18.965008520, 18.870, 287.0, 16.9411
18.975875000, 18.870, 285.0, 16.8819
18.986741480, 18.870, 283.0, 16.8226
18.997607960, 18.870, 323.0, 17.9722
19.008474440, 18.870, 340.0, 18.4391
19.019340920, 18.870, 322.0, 17.9444
19.030207400, 18.870, 354.0, 18.8149
19.041073880, 18.870, 360.0, 18.9737
19.051940360, 18.870, 408.0, 20.1990
19.062806840, 18.870, 449.0, 21.1896
19.073673320, 18.870, 501.0, 22.3830
19.084539800, 18.870, 536.0, 23.1517
19.095406280, 18.870, 496.0, 22.2711
19.106272760, 18.870, 532.0, 23.0651
19.117139240, 18.870, 552.0, 23.4947
19.128005720, 18.870, 603.0, 24.5561
19.138872200, 18.870, 556.0, 23.5797
19.149738680, 18.870, 653.0, 25.5539
19.160605160, 18.870, 672.0, 25.9230
19.171471640, 18.870, 696.0, 26.3818
19.182338120, 18.870, 703.0, 26.5141
19.193204600, 18.870, 764.0, 27.6405
19.204071080, 18.870, 716.0, 26.7582
19.214937560, 18.870, 812.0, 28.4956
19.225804040, 18.870, 789.0, 28.0891
19.236670520, 18.870, 748.0, 27.3496
19.247537000, 18.870, 737.0, 27.1477
19.258403480, 18.870, 779.0, 27.9106
19.269269960, 18.870, 778.0, 27.8927
19.280136440, 18.870, 766.0, 27.6767
19.291002920, 18.870, 814.0, 28.5307
19.301869400, 18.870, 824.0, 28.7054
19.312735880, 18.870, 725.0, 26.9258
19.323602360, 18.870, 767.0, 27.6948
19.334468840, 18.870, 776.0, 27.8568
19.345335320, 18.870, 797.0, 28.2312
19.356201800, 18.870, 777.0, 27.8747
19.367068280, 18.870, 802.0, 28.3196
19.377934760, 18.870, 732.0, 27.0555
19.388801240, 18.870, 816.0, 28.5657
19.399667720, 18.870, 833.0, 28.8617
19.410534200, 18.870, 738.0, 27.1662
19.421400680, 18.870, 810.0, 28.4605
19.432267160, 18.870, 775.0, 27.8388
19.443133640, 18.870, 770.0, 27.7489
19.454000120, 18.870, 771.0, 27.7669
19.464866600, 18.870, 781.0, 27.9464
19.475733080, 18.870, 751.0, 27.4044
19.486599560, 18.870, 796.0, 28.2135
19.497466040, 18.870, 728.0, 26.9815
19.508332520, 18.870, 703.0, 26.5141
19.519199000, 18.870, 687.0, 26.2107
19.530065480, 18.870, 674.0, 25.9615
19.540931960, 18.870, 669.0, 25.8650
19.551798440, 18.870, 704.0, 26.5330
19.562664920, 18.870, 645.0, 25.3969
19.573531400, 18.870, 605.0, 24.5967
19.584397880, 18.870, 592.0, 24.3311
19.595264360, 18.870, 574.0, 23.9583
19.606130840, 18.870, 591.0, 24.3105
19.616997320, 18.870, 517.0, 22.7376
19.627863800, 18.870, 533.0, 23.0868
19.638730280, 18.870, 515.0, 22.6936
19.649596760, 18.870, 472.0, 21.7256
19.660463240, 18.870, 487.0, 22.0681
19.671329720, 18.870, 410.0, 20.2485
19.682196200, 18.870, 421.0, 20.5183
19.693062680, 18.870, 422.0, 20.5426
19.703929160, 18.870, 413.0, 20.3224
19.714795640, 18.870, 379.0, 19.4679
19.725662120, 18.870, 418.0, 20.4450
19.736528600, 18.870, 384.0, 19.5959
19.747395080, 18.870, 379.0, 19.4679
19.758261560, 18.870, 359.0, 18.9473
19.769128040, 18.870, 340.0, 18.4391
19.779994520, 18.870, 308.0, 17.5499
19.790861000, 18.870, 355.0, 18.8414
19.801727480, 18.870, 313.0, 17.6918
19.812593960, 18.870, 290.0, 17.0294
19.823460440, 18.870, 304.0, 17.4356
19.834326920, 18.870, 282.0, 16.7929
19.845193400, 18.870, 288.0, 16.9706
19.856059880, 18.870, 256.0, 16.0000
19.866926360, 18.870, 233.0, 15.2643
19.877792840, 18.870, 259.0, 16.0935
19.888659320, 18.870, 270.0, 16.4317
19.899525800, 18.870, 272.0, 16.4924
19.910392280, 18.870, 270.0, 16.4317
19.921258760, 18.870, 248.0, 15.7480
19.932125240, 18.870, 243.0, 15.5885
19.942991720, 18.870, 257.0, 16.0312
19.953858200, 18.870, 262.0, 16.1864
19.964724680, 18.870, 260.0, 16.1245
19.975591160, 18.870, 219.0, 14.7986
19.986457640, 18.870, 225.0, 15.0000
19.997324120, 18.870, 212.0, 14.5602
20.008190600, 18.870, 214.0, 14.6287
20.019057080, 18.870, 231.0, 15.1987
20.029923560, 18.870, 239.0, 15.4596
20.040790040, 18.870, 242.0, 15.5563
20.051656520, 18.870, 226.0, 15.0333
20.062523000, 18.870, 228.0, 15.0997
20.073389480, 18.870, 244.0, 15.6205
20.084255960, 18.870, 222.0, 14.8997
20.095122440, 18.870, 230.0, 15.1658
20.105988920, 18.870, 224.0, 14.9666
20.116855400, 18.870, 243.0, 15.5885
20.127721880, 18.870, 234.0, 15.2971
20.138588360, 18.870, 222.0, 14.8997
20.149454840, 18.870, 236.0, 15.3623
20.160321320, 18.870, 241.0, 15.5242
20.171187800, 18.870, 235.0, 15.3297
20.182054280, 18.870, 256.0, 16.0000
20.192920760, 18.870, 237.0, 15.3948
20.203787240, 18.870, 237.0, 15.3948
20.214653720, 18.870, 229.0, 15.1327
20.225520200, 18.870, 243.0, 15.5885
20.236386680, 18.870, 241.0, 15.5242
20.247253160, 18.870, 256.0, 16.0000
20.258119640, 18.870, 256.0, 16.0000
20.268986120, 18.870, 230.0, 15.1658
20.279852600, 18.870, 231.0, 15.1987
20.290719080, 18.870, 219.0, 14.7986
20.301585560, 18.870, 260.0, 16.1245
20.312452040, 18.870, 235.0, 15.3297
20.323318520, 18.870, 227.0, 15.0665
20.334185000, 18.870, 245.0, 15.6525
20.345051480, 18.870, 221.0, 14.8661
20.355917960, 18.870, 220.0, 14.8324
20.366784440, 18.870, 208.0, 14.4222
20.377650920, 18.870, 240.0, 15.4919
20.388517400, 18.870, 223.0, 14.9332
20.399383880, 18.870, 246.0, 15.6844
20.410250360, 18.870, 221.0, 14.8661
20.421116840, 18.870, 240.0, 15.4919
20.431983320, 18.870, 242.0, 15.5563
20.442849800, 18.870, 267.0, 16.3401
20.453716280, 18.870, 196.0, 14.0000
20.464582760, 18.870, 257.0, 16.0312
20.475449240, 18.870, 231.0, 15.1987
20.486315720, 18.870, 213.0, 14.5945
20.497182200, 18.870, 212.0, 14.5602
20.508048680, 18.870, 243.0, 15.5885
20.518915160, 18.870, 261.0, 16.1555
20.529781640, 18.870, 236.0, 15.3623
20.540648120, 18.870, 208.0, 14.4222
20.551514600, 18.870, 244.0, 15.6205
20.562381080, 18.870, 230.0, 15.1658
20.573247560, 18.870, 217.0, 14.7309
20.584114040, 18.870, 259.0, 16.0935
20.594980520, 18.870, 273.0, 16.5227
20.605847000, 18.870, 290.0, 17.0294
20.616713480, 18.870, 290.0, 17.0294
20.627579960, 18.870, 257.0, 16.0312
20.638446440, 18.870, 274.0, 16.5529
20.649312920, 18.870, 227.0, 15.0665
20.660179400, 18.870, 256.0, 16.0000
20.671045880, 18.870, 239.0, 15.4596
20.681912360, 18.870, 236.0, 15.3623
20.692778840, 18.870, 265.0, 16.2788
20.703645320, 18.870, 258.0, 16.0624
20.714511800, 18.870, 240.0, 15.4919
20.725378280, 18.870, 270.0, 16.4317
20.736244760, 18.870, 223.0, 14.9332
20.747111240, 18.870, 229.0, 15.1327
20.757977720, 18.870, 232.0, 15.2315
20.768844200, 18.870, 224.0, 14.9666
20.779710680, 18.870, 224.0, 14.9666
20.790577160, 18.870, 197.0, 14.0357
20.801443640, 18.870, 214.0, 14.6287
20.812310120, 18.870, 222.0, 14.8997
20.823176600, 18.870, 212.0, 14.5602
20.834043080, 18.870, 225.0, 15.0000
20.844909560, 18.870, 208.0, 14.4222
20.855776040, 18.870, 220.0, 14.8324
20.866642520, 18.870, 213.0, 14.5945
20.877509000, 18.870, 207.0, 14.3875
20.888375480, 18.870, 230.0, 15.1658
20.899241960, 18.870, 232.0, 15.2315
20.910108440, 18.870, 188.0, 13.7113
20.920974920, 18.870, 216.0, 14.6969
20.931841400, 18.870, 227.0, 15.0665
20.942707880, 18.870, 212.0, 14.5602
20.953574360, 18.870, 221.0, 14.8661
20.964440840, 18.870, 207.0, 14.3875
20.975307320, 18.870, 228.0, 15.0997
20.986173800, 18.870, 236.0, 15.3623
20.997040280, 18.870, 209.0, 14.4568
21.007906760, 18.870, 224.0, 14.9666
21.018773240, 18.870, 213.0, 14.5945
21.029639720, 18.870, 216.0, 14.6969
21.040506200, 18.870, 264.0, 16.2481
21.051372680, 18.870, 224.0, 14.9666
21.062239160, 18.870, 224.0, 14.9666
21.073105640, 18.870, 222.0, 14.8997
21.083972120, 18.870, 220.0, 14.8324
21.094838600, 18.870, 219.0, 14.7986
21.105705080, 18.870, 216.0, 14.6969
21.116571560, 18.870, 198.0, 14.0712
21.127438040, 18.870, 246.0, 15.6844
21.138304520, 18.870, 224.0, 14.9666
21.149171000, 18.870, 257.0, 16.0312
21.160037480, 18.870, 248.0, 15.7480
21.170903960, 18.870, 235.0, 15.3297
21.181770440, 18.870, 258.0, 16.0624
21.192636920, 18.870, 257.0, 16.0312
21.203503400, 18.870, 244.0, 15.6205
21.214369880, 18.870, 244.0, 15.6205
21.225236360, 18.870, 207.0, 14.3875
21.236102840, 18.870, 232.0, 15.2315
21.246969320, 18.870, 240.0, 15.4919
21.257835800, 18.870, 228.0, 15.0997
21.268702280, 18.870, 246.0, 15.6844
21.279568760, 18.870, 222.0, 14.8997
21.290435240, 18.870, 200.0, 14.1421
21.301301720, 18.870, 235.0, 15.3297
21.312168200, 18.870, 223.0, 14.9332
21.323034680, 18.870, 234.0, 15.2971
21.333901160, 18.870, 229.0, 15.1327
21.344767640, 18.870, 236.0, 15.3623
21.355634120, 18.870, 235.0, 15.3297
21.366500600, 18.870, 198.0, 14.0712
21.377367080, 18.870, 227.0, 15.0665
21.388233560, 18.870, 193.0, 13.8924
21.399100040, 18.870, 222.0, 14.8997
21.409966520, 18.870, 207.0, 14.3875
21.420833000, 18.870, 230.0, 15.1658
21.431699480, 18.870, 201.0, 14.1774
21.442565960, 18.870, 205.0, 14.3178
21.453432440, 18.870, 209.0, 14.4568
21.464298920, 18.870, 238.0, 15.4272
21.475165400, 18.870, 249.0, 15.7797
21.486031880, 18.870, 218.0, 14.7648
21.496898360, 18.870, 226.0, 15.0333
21.507764840, 18.870, 200.0, 14.1421
21.518631320, 18.870, 238.0, 15.4272
21.529497800, 18.870, 198.0, 14.0712
21.540364280, 18.870, 235.0, 15.3297
21.551230760, 18.870, 199.0, 14.1067
21.562097240, 18.870, 221.0, 14.8661
21.572963720, 18.870, 218.0, 14.7648
21.583830200, 18.870, 195.0, 13.9642
21.594696680, 18.870, 218.0, 14.7648
21.605563160, 18.870, 222.0, 14.8997
21.616429640, 18.870, 236.0, 15.3623
21.627296120, 18.870, 225.0, 15.0000
21.638162600, 18.870, 213.0, 14.5945
21.649029080, 18.870, 222.0, 14.8997
21.659895560, 18.870, 231.0, 15.1987
21.670762040, 18.870, 223.0, 14.9332
21.681628520, 18.870, 231.0, 15.1987
21.692495000, 18.870, 230.0, 15.1658
21.703361480, 18.870, 221.0, 14.8661
21.714227960, 18.870, 275.0, 16.5831
21.725094440, 18.870, 288.0, 16.9706
21.735960920, 18.870, 259.0, 16.0935
21.746827400, 18.870, 261.0, 16.1555
21.757693880, 18.870, 235.0, 15.3297
21.768560360, 18.870, 270.0, 16.4317
21.779426840, 18.870, 265.0, 16.2788
21.790293320, 18.870, 239.0, 15.4596
21.801159800, 18.870, 272.0, 16.4924
21.812026280, 18.870, 272.0, 16.4924
21.822892760, 18.870, 289.0, 17.0000
21.833759240, 18.870, 279.0, 16.7033
21.844625720, 18.870, 281.0, 16.7631
21.855492200, 18.870, 268.0, 16.3707
21.866358680, 18.870, 298.0, 17.2627
21.877225160, 18.870, 295.0, 17.1756
21.888091640, 18.870, 285.0, 16.8819
21.898958120, 18.870, 303.0, 17.4069
21.909824600, 18.870, 289.0, 17.0000
21.920691080, 18.870, 304.0, 17.4356
21.931557560, 18.870, 308.0, 17.5499
21.942424040, 18.870, 337.0, 18.3576
21.953290520, 18.870, 287.0, 16.9411
21.964157000, 18.870, 269.0, 16.4012
21.975023480, 18.870, 304.0, 17.4356
21.985889960, 18.870, 295.0, 17.1756
21.996756440, 18.870, 301.0, 17.3494
22.007622920, 18.870, 273.0, 16.5227
22.018489400, 18.870, 329.0, 18.1384
22.029355880, 18.870, 293.0, 17.1172
22.040222360, 18.870, 294.0, 17.1464
22.051088840, 18.870, 279.0, 16.7033
22.061955320, 18.870, 313.0, 17.6918
22.072821800, 18.870, 265.0, 16.2788
22.083688280, 18.870, 313.0, 17.6918
22.094554760, 18.870, 296.0, 17.2047
22.105421240, 18.870, 278.0, 16.6733
22.116287720, 18.870, 308.0, 17.5499
22.127154200, 18.870, 297.0, 17.2337
22.138020680, 18.870, 294.0, 17.1464
22.148887160, 18.870, 321.0, 17.9165
22.159753640, 18.870, 308.0, 17.5499
22.170620120, 18.870, 300.0, 17.3205
22.181486600, 18.870, 335.0, 18.3030
22.192353080, 18.870, 292.0, 17.0880
22.203219560, 18.870, 330.0, 18.1659
22.214086040, 18.870, 288.0, 16.9706
22.224952520, 18.870, 315.0, 17.7482
22.235819000, 18.870, 316.0, 17.7764
22.246685480, 18.870, 317.0, 17.8045
22.257551960, 18.870, 313.0, 17.6918
22.268418440, 18.870, 327.0, 18.0831
22.279284920, 18.870, 310.0, 17.6068
22.290151400, 18.870, 324.0, 18.0000
22.301017880, 18.870, 292.0, 17.0880
22.311884360, 18.870, 294.0, 17.1464
22.322750840, 18.870, 308.0, 17.5499
22.333617320, 18.870, 287.0, 16.9411
22.344483800, 18.870, 276.0, 16.6132
22.355350280, 18.870, 279.0, 16.7033
22.366216760, 18.870, 283.0, 16.8226
22.377083240, 18.870, 280.0, 16.7332
22.387949720, 18.870, 260.0, 16.1245
22.398816200, 18.870, 294.0, 17.1464
22.409682680, 18.870, 276.0, 16.6132
22.420549160, 18.870, 296.0, 17.2047
22.431415640, 18.870, 279.0, 16.7033
22.442282120, 18.870, 291.0, 17.0587
22.453148600, 18.870, 285.0, 16.8819
22.464015080, 18.870, 340.0, 18.4391
22.474881560, 18.870, 295.0, 17.1756
22.485748040, 18.870, 305.0, 17.4642
22.496614520, 18.870, 330.0, 18.1659
22.507481000, 18.870, 334.0, 18.2757
22.518347480, 18.870, 336.0, 18.3303
22.529213960, 18.870, 334.0, 18.2757
22.540080440, 18.870, 332.0, 18.2209
22.550946920, 18.870, 361.0, 19.0000
22.561813400, 18.870, 382.0, 19.5448
22.572679880, 18.870, 383.0, 19.5704
22.583546360, 18.870, 381.0, 19.5192
22.594412840, 18.870, 414.0, 20.3470
22.605279320, 18.870, 418.0, 20.4450
22.616145800, 18.870, 477.0, 21.8403
22.627012280, 18.870, 430.0, 20.7364
22.637878760, 18.870, 459.0, 21.4243
22.648745240, 18.870, 436.0, 20.8806
22.659611720, 18.870, 453.0, 21.2838
22.670478200, 18.870, 410.0, 20.2485
22.681344680, 18.870, 474.0, 21.7715
22.692211160, 18.870, 463.0, 21.5174
22.703077640, 18.870, 502.0, 22.4054
22.713944120, 18.870, 450.0, 21.2132
22.724810600, 18.870, 449.0, 21.1896
22.735677080, 18.870, 466.0, 21.5870
22.746543560, 18.870, 482.0, 21.9545
22.757410040, 18.870, 494.0, 22.2261
22.768276520, 18.870, 514.0, 22.6716
22.779143000, 18.870, 489.0, 22.1133
22.790009480, 18.870, 523.0, 22.8692
22.800875960, 18.870, 473.0, 21.7486
22.811742440, 18.870, 517.0, 22.7376
22.822608920, 18.870, 563.0, 23.7276
22.833475400, 18.870, 589.0, 24.2693
22.844341880, 18.870, 535.0, 23.1301
22.855208360, 18.870, 582.0, 24.1247
22.866074840, 18.870, 600.0, 24.4949
22.876941320, 18.870, 627.0, 25.0400
22.887807800, 18.870, 595.0, 24.3926
22.898674280, 18.870, 627.0, 25.0400
22.909540760, 18.870, 679.0, 26.0576
22.920407240, 18.870, 696.0, 26.3818
22.931273720, 18.870, 747.0, 27.3313
22.942140200, 18.870, 693.0, 26.3249
22.953006680, 18.870, 744.0, 27.2764
22.963873160, 18.870, 753.0, 27.4408
22.974739640, 18.870, 788.0, 28.0713
22.985606120, 18.870, 759.0, 27.5500
22.996472600, 18.870, 804.0, 28.3549
23.007339080, 18.870, 834.0, 28.8791
23.018205560, 18.870, 787.0, 28.0535
23.029072040, 18.870, 840.0, 28.9828
23.039938520, 18.870, 790.0, 28.1069
23.050805000, 18.870, 786.0, 28.0357
23.061671480, 18.870, 794.0, 28.1780
23.072537960, 18.870, 744.0, 27.2764
23.083404440, 18.870, 700.0, 26.4575
23.094270920, 18.870, 735.0, 27.1109
23.105137400, 18.870, 670.0, 25.8844
23.116003880, 18.870, 688.0, 26.2298
23.126870360, 18.870, 629.0, 25.0799
23.137736840, 18.870, 614.0, 24.7790
23.148603320, 18.870, 544.0, 23.3238
23.159469800, 18.870, 516.0, 22.7156
23.170336280, 18.870, 572.0, 23.9165
23.181202760, 18.870, 506.0, 22.4944
23.192069240, 18.870, 472.0, 21.7256
23.202935720, 18.870, 464.0, 21.5407
23.213802200, 18.870, 421.0, 20.5183
23.224668680, 18.870, 464.0, 21.5407
23.235535160, 18.870, 414.0, 20.3470
23.246401640, 18.870, 373.0, 19.3132
23.257268120, 18.870, 400.0, 20.0000
23.268134600, 18.870, 372.0, 19.2873
23.279001080, 18.870, 378.0, 19.4422
23.289867560, 18.870, 364.0, 19.0788
23.300734040, 18.870, 335.0, 18.3030
23.311600520, 18.870, 341.0, 18.4662
23.322467000, 18.870, 347.0, 18.6279
23.333333480, 18.870, 327.0, 18.0831
23.344199960, 18.870, 325.0, 18.0278
23.355066440, 18.870, 358.0, 18.9209
23.365932920, 18.870, 304.0, 17.4356
23.376799400, 18.870, 365.0, 19.1050
23.387665880, 18.870, 351.0, 18.7350
23.398532360, 18.870, 350.0, 18.7083
23.409398840, 18.870, 314.0, 17.7200
23.420265320, 18.870, 341.0, 18.4662
23.431131800, 18.870, 321.0, 17.9165
23.441998280, 18.870, 350.0, 18.7083
23.452864760, 18.870, 340.0, 18.4391
23.463731240, 18.870, 391.0, 19.7737
23.474597720, 18.870, 388.0, 19.6977
23.485464200, 18.870, 371.0, 19.2614
23.496330680, 18.870, 346.0, 18.6011
23.507197160, 18.870, 426.0, 20.6398
23.518063640, 18.870, 413.0, 20.3224
23.528930120, 18.870, 383.0, 19.5704
23.539796600, 18.870, 412.0, 20.2978
23.550663080, 18.870, 411.0, 20.2731
23.561529560, 18.870, 444.0, 21.0713
23.572396040, 18.870, 416.0, 20.3961
23.583262520, 18.870, 420.0, 20.4939
23.594129000, 18.870, 394.0, 19.8494
23.604995480, 18.870, 397.0, 19.9249
23.615861960, 18.870, 429.0, 20.7123
23.626728440, 18.870, 416.0, 20.3961
23.637594920, 18.870, 412.0, 20.2978
23.648461400, 18.870, 461.0, 21.4709
23.659327880, 18.870, 414.0, 20.3470
23.670194360, 18.870, 428.0, 20.6882
23.681060840, 18.870, 472.0, 21.7256
23.691927320, 18.870, 409.0, 20.2237
23.702793800, 18.870, 394.0, 19.8494
23.713660280, 18.870, 407.0, 20.1742
23.724526760, 18.870, 449.0, 21.1896
23.735393240, 18.870, 421.0, 20.5183
23.746259720, 18.870, 383.0, 19.5704
23.757126200, 18.870, 358.0, 18.9209
23.767992680, 18.870, 340.0, 18.4391
23.778859160, 18.870, 318.0, 17.8326
23.789725640, 18.870, 365.0, 19.1050
23.800592120, 18.870, 354.0, 18.8149
23.811458600, 18.870, 335.0, 18.3030
23.822325080, 18.870, 346.0, 18.6011
23.833191560, 18.870, 327.0, 18.0831
23.844058040, 18.870, 304.0, 17.4356
23.854924520, 18.870, 322.0, 17.9444
23.865791000, 18.870, 328.0, 18.1108
23.876657480, 18.870, 308.0, 17.5499
23.887523960, 18.870, 286.0, 16.9115
23.898390440, 18.870, 275.0, 16.5831
23.909256920, 18.870, 304.0, 17.4356
23.920123400, 18.870, 291.0, 17.0587
23.930989880, 18.870, 262.0, 16.1864
23.941856360, 18.870, 281.0, 16.7631
23.952722840, 18.870, 292.0, 17.0880
23.963589320, 18.870, 280.0, 16.7332
23.974455800, 18.870, 264.0, 16.2481
23.985322280, 18.870, 260.0, 16.1245
23.996188760, 18.870, 245.0, 15.6525
24.007055240, 18.870, 247.0, 15.7162
24.017921720, 18.870, 239.0, 15.4596
24.028788200, 18.870, 271.0, 16.4621
24.039654680, 18.870, 247.0, 15.7162
24.050521160, 18.870, 237.0, 15.3948
24.061387640, 18.870, 258.0, 16.0624
24.072254120, 18.870, 230.0, 15.1658
24.083120600, 18.870, 235.0, 15.3297
24.093987080, 18.870, 277.0, 16.6433
24.104853560, 18.870, 261.0, 16.1555
24.115720040, 18.870, 218.0, 14.7648
24.126586520, 18.870, 238.0, 15.4272
24.137453000, 18.870, 222.0, 14.8997
24.148319480, 18.870, 242.0, 15.5563
24.159185960, 18.870, 243.0, 15.5885
24.170052440, 18.870, 277.0, 16.6433
24.180918920, 18.870, 280.0, 16.7332
24.191785400, 18.870, 222.0, 14.8997
24.202651880, 18.870, 279.0, 16.7033
24.213518360, 18.870, 249.0, 15.7797
24.224384840, 18.870, 219.0, 14.7986
24.235251320, 18.870, 248.0, 15.7480
24.246117800, 18.870, 268.0, 16.3707
24.256984280, 18.870, 283.0, 16.8226
24.267850760, 18.870, 239.0, 15.4596
24.278717240, 18.870, 242.0, 15.5563
24.289583720, 18.870, 228.0, 15.0997
24.300450200, 18.870, 276.0, 16.6132
24.311316680, 18.870, 293.0, 17.1172
24.322183160, 18.870, 269.0, 16.4012
24.333049640, 18.870, 266.0, 16.3095
24.343916120, 18.870, 267.0, 16.3401
24.354782600, 18.870, 259.0, 16.0935
24.365649080, 18.870, 265.0, 16.2788
24.376515560, 18.870, 267.0, 16.3401
24.387382040, 18.870, 296.0, 17.2047
24.398248520, 18.870, 289.0, 17.0000
24.409115000, 18.870, 301.0, 17.3494
24.419981480, 18.870, 269.0, 16.4012
24.430847960, 18.870, 293.0, 17.1172
24.441714440, 18.870, 288.0, 16.9706
24.452580920, 18.870, 289.0, 17.0000
24.463447400, 18.870, 308.0, 17.5499
24.474313880, 18.870, 307.0, 17.5214
24.485180360, 18.870, 320.0, 17.8885
24.496046840, 18.870, 293.0, 17.1172
24.506913320, 18.870, 316.0, 17.7764
24.517779800, 18.870, 315.0, 17.7482
24.528646280, 18.870, 287.0, 16.9411
24.539512760, 18.870, 289.0, 17.0000
24.550379240, 18.870, 321.0, 17.9165
24.561245720, 18.870, 300.0, 17.3205
24.572112200, 18.870, 289.0, 17.0000
24.582978680, 18.870, 296.0, 17.2047
24.593845160, 18.870, 259.0, 16.0935
24.604711640, 18.870, 309.0, 17.5784
24.615578120, 18.870, 277.0, 16.6433
24.626444600, 18.870, 271.0, 16.4621
24.637311080, 18.870, 293.0, 17.1172
24.648177560, 18.870, 267.0, 16.3401
24.659044040, 18.870, 265.0, 16.2788
24.669910520, 18.870, 286.0, 16.9115
24.680777000, 18.870, 246.0, 15.6844
24.691643480, 18.870, 277.0, 16.6433
24.702509960, 18.870, 278.0, 16.6733
24.713376440, 18.870, 226.0, 15.0333
24.724242920, 18.870, 233.0, 15.2643
24.735109400, 18.870, 248.0, 15.7480
24.745975880, 18.870, 260.0, 16.1245
24.756842360, 18.870, 274.0, 16.5529
24.767708840, 18.870, 233.0, 15.2643
24.778575320, 18.870, 262.0, 16.1864
24.789441800, 18.870, 284.0, 16.8523
24.800308280, 18.870, 269.0, 16.4012
24.811174760, 18.870, 267.0, 16.3401
24.822041240, 18.870, 277.0, 16.6433
24.832907720, 18.870, 288.0, 16.9706
24.843774200, 18.870, 249.0, 15.7797
24.854640680, 18.870, 296.0, 17.2047
24.865507160, 18.870, 296.0, 17.2047
24.876373640, 18.870, 280.0, 16.7332
24.887240120, 18.870, 279.0, 16.7033
24.898106600, 18.870, 269.0, 16.4012
24.908973080, 18.870, 248.0, 15.7480
24.919839560, 18.870, 275.0, 16.5831
24.930706040, 18.870, 302.0, 17.3781
24.941572520, 18.870, 310.0, 17.6068
24.952439000, 18.870, 275.0, 16.5831
24.963305480, 18.870, 298.0, 17.2627
24.974171960, 18.870, 290.0, 17.0294
24.985038440, 18.870, 292.0, 17.0880
24.995904920, 18.870, 309.0, 17.5784
25.006771400, 18.870, 317.0, 17.8045
25.017637880, 18.870, 326.0, 18.0555
25.028504360, 18.870, 346.0, 18.6011
25.039370840, 18.870, 302.0, 17.3781
25.050237320, 18.870, 311.0, 17.6352
25.061103800, 18.870, 329.0, 18.1384
25.071970280, 18.870, 308.0, 17.5499
25.082836760, 18.870, 305.0, 17.4642
25.093703240, 18.870, 318.0, 17.8326
25.104569720, 18.870, 297.0, 17.2337
25.115436200, 18.870, 278.0, 16.6733
25.126302680, 18.870, 301.0, 17.3494
25.137169160, 18.870, 326.0, 18.0555
25.148035640, 18.870, 338.0, 18.3848
25.158902120, 18.870, 303.0, 17.4069
25.169768600, 18.870, 341.0, 18.4662
25.180635080, 18.870, 293.0, 17.1172
25.191501560, 18.870, 307.0, 17.5214
25.202368040, 18.870, 351.0, 18.7350
25.213234520, 18.870, 371.0, 19.2614
25.224101000, 18.870, 327.0, 18.0831
25.234967480, 18.870, 337.0, 18.3576
25.245833960, 18.870, 355.0, 18.8414
25.256700440, 18.870, 395.0, 19.8746
25.267566920, 18.870, 404.0, 20.0998
25.278433400, 18.870, 396.0, 19.8997
25.289299880, 18.870, 361.0, 19.0000
25.300166360, 18.870, 423.0, 20.5670
25.311032840, 18.870, 451.0, 21.2368
25.321899320, 18.870, 453.0, 21.2838
25.332765800, 18.870, 446.0, 21.1187
25.343632280, 18.870, 475.0, 21.7945
25.354498760, 18.870, 483.0, 21.9773
25.365365240, 18.870, 483.0, 21.9773
25.376231720, 18.870, 526.0, 22.9347
25.387098200, 18.870, 505.0, 22.4722
25.397964680, 18.870, 518.0, 22.7596
25.408831160, 18.870, 548.0, 23.4094
25.419697640, 18.870, 550.0, 23.4521
25.430564120, 18.870, 586.0, 24.2074
25.441430600, 18.870, 561.0, 23.6854
25.452297080, 18.870, 569.0, 23.8537
25.463163560, 18.870, 582.0, 24.1247
25.474030040, 18.870, 592.0, 24.3311
25.484896520, 18.870, 626.0, 25.0200
25.495763000, 18.870, 621.0, 24.9199
25.506629480, 18.870, 649.0, 25.4755
25.517495960, 18.870, 654.0, 25.5734
25.528362440, 18.870, 612.0, 24.7386
25.539228920, 18.870, 649.0, 25.4755
25.550095400, 18.870, 687.0, 26.2107
25.560961880, 18.870, 629.0, 25.0799
25.571828360, 18.870, 622.0, 24.9399
25.582694840, 18.870, 645.0, 25.3969
25.593561320, 18.870, 649.0, 25.4755
25.604427800, 18.870, 638.0, 25.2587
25.615294280, 18.870, 678.0, 26.0384
25.626160760, 18.870, 662.0, 25.7294
25.637027240, 18.870, 612.0, 24.7386
25.647893720, 18.870, 595.0, 24.3926
25.658760200, 18.870, 646.0, 25.4165
25.669626680, 18.870, 617.0, 24.8395
25.680493160, 18.870, 595.0, 24.3926
25.691359640, 18.870, 619.0, 24.8797
25.702226120, 18.870, 602.0, 24.5357
25.713092600, 18.870, 596.0, 24.4131
25.723959080, 18.870, 533.0, 23.0868
25.734825560, 18.870, 603.0, 24.5561
25.745692040, 18.870, 489.0, 22.1133
25.756558520, 18.870, 497.0, 22.2935
25.767425000, 18.870, 505.0, 22.4722
25.778291480, 18.870, 505.0, 22.4722
25.789157960, 18.870, 447.0, 21.1424
25.800024440, 18.870, 492.0, 22.1811
25.810890920, 18.870, 490.0, 22.1359
25.821757400, 18.870, 506.0, 22.4944
25.832623880, 18.870, 435.0, 20.8567
25.843490360, 18.870, 460.0, 21.4476
25.854356840, 18.870, 466.0, 21.5870
25.865223320, 18.870, 438.0, 20.9284
25.876089800, 18.870, 436.0, 20.8806
25.886956280, 18.870, 427.0, 20.6640
25.897822760, 18.870, 410.0, 20.2485
25.908689240, 18.870, 391.0, 19.7737
25.919555720, 18.870, 373.0, 19.3132
25.930422200, 18.870, 366.0, 19.1311
25.941288680, 18.870, 374.0, 19.3391
25.952155160, 18.870, 348.0, 18.6548
25.963021640, 18.870, 354.0, 18.8149
25.973888120, 18.870, 329.0, 18.1384
25.984754600, 18.870, 339.0, 18.4120
25.995621080, 18.870, 377.0, 19.4165
26.006487560, 18.870, 356.0, 18.8680
26.017354040, 18.870, 336.0, 18.3303
26.028220520, 18.870, 372.0, 19.2873
26.039087000, 18.870, 339.0, 18.4120
26.049953480, 18.870, 318.0, 17.8326
26.060819960, 18.870, 307.0, 17.5214
26.071686440, 18.870, 341.0, 18.4662
26.082552920, 18.870, 340.0, 18.4391
26.093419400, 18.870, 322.0, 17.9444
26.104285880, 18.870, 326.0, 18.0555
26.115152360, 18.870, 346.0, 18.6011
26.126018840, 18.870, 346.0, 18.6011
26.136885320, 18.870, 324.0, 18.0000
26.147751800, 18.870, 359.0, 18.9473
26.158618280, 18.870, 340.0, 18.4391
26.169484760, 18.870, 341.0, 18.4662
26.180351240, 18.870, 341.0, 18.4662
26.191217720, 18.870, 351.0, 18.7350
26.202084200, 18.870, 340.0, 18.4391
26.212950680, 18.870, 354.0, 18.8149
26.223817160, 18.870, 304.0, 17.4356
26.234683640, 18.870, 299.0, 17.2916
26.245550120, 18.870, 348.0, 18.6548
26.256416600, 18.870, 354.0, 18.8149
26.267283080, 18.870, 365.0, 19.1050
26.278149560, 18.870, 368.0, 19.1833
26.289016040, 18.870, 370.0, 19.2354
26.299882520, 18.870, 354.0, 18.8149
26.310749000, 18.870, 364.0, 19.0788
26.321615480, 18.870, 378.0, 19.4422
26.332481960, 18.870, 359.0, 18.9473
26.343348440, 18.870, 330.0, 18.1659
26.354214920, 18.870, 369.0, 19.2094
26.365081400, 18.870, 329.0, 18.1384
26.375947880, 18.870, 360.0, 18.9737
26.386814360, 18.870, 360.0, 18.9737
26.397680840, 18.870, 395.0, 19.8746
26.408547320, 18.870, 388.0, 19.6977
26.419413800, 18.870, 390.0, 19.7484
26.430280280, 18.870, 380.0, 19.4936
26.441146760, 18.870, 402.0, 20.0499
26.452013240, 18.870, 426.0, 20.6398
26.462879720, 18.870, 387.0, 19.6723
26.473746200, 18.870, 401.0, 20.0250
26.484612680, 18.870, 405.0, 20.1246
26.495479160, 18.870, 408.0, 20.1990
26.506345640, 18.870, 459.0, 21.4243
26.517212120, 18.870, 422.0, 20.5426
26.528078600, 18.870, 475.0, 21.7945
26.538945080, 18.870, 466.0, 21.5870
26.549811560, 18.870, 418.0, 20.4450
26.560678040, 18.870, 472.0, 21.7256
26.571544520, 18.870, 420.0, 20.4939
26.582411000, 18.870, 427.0, 20.6640
26.593277480, 18.870, 475.0, 21.7945
26.604143960, 18.870, 452.0, 21.2603
26.615010440, 18.870, 475.0, 21.7945
26.625876920, 18.870, 438.0, 20.9284
26.636743400, 18.870, 412.0, 20.2978
26.647609880, 18.870, 421.0, 20.5183
26.658476360, 18.870, 459.0, 21.4243
26.669342840, 18.870, 458.0, 21.4009
26.680209320, 18.870, 427.0, 20.6640
26.691075800, 18.870, 415.0, 20.3715
26.701942280, 18.870, 434.0, 20.8327
26.712808760, 18.870, 423.0, 20.5670
26.723675240, 18.870, 416.0, 20.3961
26.734541720, 18.870, 381.0, 19.5192
26.745408200, 18.870, 406.0, 20.1494
26.756274680, 18.870, 434.0, 20.8327
26.767141160, 18.870, 407.0, 20.1742
26.778007640, 18.870, 402.0, 20.0499
26.788874120, 18.870, 435.0, 20.8567
26.799740600, 18.870, 444.0, 21.0713
26.810607080, 18.870, 428.0, 20.6882
26.821473560, 18.870, 407.0, 20.1742
26.832340040, 18.870, 438.0, 20.9284
26.843206520, 18.870, 386.0, 19.6469
26.854073000, 18.870, 404.0, 20.0998
26.864939480, 18.870, 412.0, 20.2978
26.875805960, 18.870, 407.0, 20.1742
26.886672440, 18.870, 408.0, 20.1990
26.897538920, 18.870, 364.0, 19.0788
26.908405400, 18.870, 376.0, 19.3907
26.919271880, 18.870, 394.0, 19.8494
26.930138360, 18.870, 403.0, 20.0749
26.941004840, 18.870, 394.0, 19.8494
26.951871320, 18.870, 432.0, 20.7846
26.962737800, 18.870, 402.0, 20.0499
26.973604280, 18.870, 437.0, 20.9045
26.984470760, 18.870, 421.0, 20.5183
26.995337240, 18.870, 401.0, 20.0250
27.006203720, 18.870, 394.0, 19.8494
27.017070200, 18.870, 417.0, 20.4206
27.027936680, 18.870, 421.0, 20.5183
27.038803160, 18.870, 444.0, 21.0713
27.049669640, 18.870, 455.0, 21.3307
27.060536120, 18.870, 431.0, 20.7605
27.071402600, 18.870, 426.0, 20.6398
27.082269080, 18.870, 487.0, 22.0681
27.093135560, 18.870, 475.0, 21.7945
27.104002040, 18.870, 476.0, 21.8174
27.114868520, 18.870, 501.0, 22.3830
27.125735000, 18.870, 453.0, 21.2838
27.136601480, 18.870, 466.0, 21.5870
27.147467960, 18.870, 438.0, 20.9284
27.158334440, 18.870, 475.0, 21.7945
27.169200920, 18.870, 436.0, 20.8806
27.180067400, 18.870, 501.0, 22.3830
27.190933880, 18.870, 482.0, 21.9545
27.201800360, 18.870, 516.0, 22.7156
27.212666840, 18.870, 474.0, 21.7715
27.223533320, 18.870, 494.0, 22.2261
27.234399800, 18.870, 468.0, 21.6333
27.245266280, 18.870, 477.0, 21.8403
27.256132760, 18.870, 487.0, 22.0681
27.266999240, 18.870, 482.0, 21.9545
27.277865720, 18.870, 530.0, 23.0217
27.288732200, 18.870, 507.0, 22.5167
27.299598680, 18.870, 488.0, 22.0907
27.310465160, 18.870, 530.0, 23.0217
27.321331640, 18.870, 491.0, 22.1585
27.332198120, 18.870, 510.0, 22.5832
27.343064600, 18.870, 470.0, 21.6795
27.353931080, 18.870, 477.0, 21.8403
27.364797560, 18.870, 481.0, 21.9317
27.375664040, 18.870, 474.0, 21.7715
27.386530520, 18.870, 532.0, 23.0651
27.397397000, 18.870, 502.0, 22.4054
27.408263480, 18.870, 499.0, 22.3383
27.419129960, 18.870, 510.0, 22.5832
27.429996440, 18.870, 492.0, 22.1811
27.440862920, 18.870, 540.0, 23.2379
27.451729400, 18.870, 555.0, 23.5584
27.462595880, 18.870, 539.0, 23.2164
27.473462360, 18.870, 519.0, 22.7816
27.484328840, 18.870, 522.0, 22.8473
27.495195320, 18.870, 543.0, 23.3024
27.506061800, 18.870, 537.0, 23.1733
27.516928280, 18.870, 483.0, 21.9773
27.527794760, 18.870, 560.0, 23.6643
27.538661240, 18.870, 551.0, 23.4734
27.549527720, 18.870, 536.0, 23.1517
27.560394200, 18.870, 569.0, 23.8537
27.571260680, 18.870, 588.0, 24.2487
27.582127160, 18.870, 563.0, 23.7276
27.592993640, 18.870, 569.0, 23.8537
27.603860120, 18.870, 547.0, 23.3880
27.614726600, 18.870, 536.0, 23.1517
27.625593080, 18.870, 525.0, 22.9129
27.636459560, 18.870, 556.0, 23.5797
27.647326040, 18.870, 551.0, 23.4734
27.658192520, 18.870, 536.0, 23.1517
27.669059000, 18.870, 526.0, 22.9347
27.679925480, 18.870, 494.0, 22.2261
27.690791960, 18.870, 543.0, 23.3024
27.701658440, 18.870, 549.0, 23.4307
27.712524920, 18.870, 491.0, 22.1585
27.723391400, 18.870, 543.0, 23.3024
27.734257880, 18.870, 498.0, 22.3159
27.745124360, 18.870, 510.0, 22.5832
27.755990840, 18.870, 468.0, 21.6333
27.766857320, 18.870, 478.0, 21.8632
27.777723800, 18.870, 480.0, 21.9089
27.788590280, 18.870, 491.0, 22.1585
27.799456760, 18.870, 450.0, 21.2132
27.810323240, 18.870, 467.0, 21.6102
27.821189720, 18.870, 454.0, 21.3073
27.832056200, 18.870, 435.0, 20.8567
27.842922680, 18.870, 458.0, 21.4009
27.853789160, 18.870, 432.0, 20.7846
27.864655640, 18.870, 411.0, 20.2731
27.875522120, 18.870, 442.0, 21.0238
27.886388600, 18.870, 444.0, 21.0713
27.897255080, 18.870, 395.0, 19.8746
27.908121560, 18.870, 393.0, 19.8242
27.918988040, 18.870, 390.0, 19.7484
27.929854520, 18.870, 398.0, 19.9499
27.940721000, 18.870, 403.0, 20.0749
27.951587480, 18.870, 370.0, 19.2354
27.962453960, 18.870, 371.0, 19.2614
27.973320440, 18.870, 399.0, 19.9750
27.984186920, 18.870, 358.0, 18.9209
27.995053400, 18.870, 363.0, 19.0526
28.005919880, 18.870, 371.0, 19.2614
28.016786360, 18.870, 387.0, 19.6723
28.027652840, 18.870, 342.0, 18.4932
28.038519320, 18.870, 360.0, 18.9737
28.049385800, 18.870, 394.0, 19.8494
28.060252280, 18.870, 368.0, 19.1833
28.071118760, 18.870, 348.0, 18.6548
28.081985240, 18.870, 346.0, 18.6011
28.092851720, 18.870, 334.0, 18.2757
28.103718200, 18.870, 376.0, 19.3907
28.114584680, 18.870, 339.0, 18.4120
28.125451160, 18.870, 329.0, 18.1384
28.136317640, 18.870, 364.0, 19.0788
28.147184120, 18.870, 339.0, 18.4120
28.158050600, 18.870, 346.0, 18.6011
28.168917080, 18.870, 346.0, 18.6011
28.179783560, 18.870, 319.0, 17.8606
28.190650040, 18.870, 323.0, 17.9722
28.201516520, 18.870, 329.0, 18.1384
28.212383000, 18.870, 339.0, 18.4120
28.223249480, 18.870, 324.0, 18.0000
28.234115960, 18.870, 319.0, 17.8606
28.244982440, 18.870, 340.0, 18.4391
28.255848920, 18.870, 328.0, 18.1108
28.266715400, 18.870, 338.0, 18.3848
28.277581880, 18.870, 361.0, 19.0000
28.288448360, 18.870, 356.0, 18.8680
28.299314840, 18.870, 339.0, 18.4120
28.310181320, 18.870, 325.0, 18.0278
28.321047800, 18.870, 316.0, 17.7764
28.331914280, 18.870, 349.0, 18.6815
28.342780760, 18.870, 335.0, 18.3030
28.353647240, 18.870, 363.0, 19.0526
28.364513720, 18.870, 327.0, 18.0831
28.375380200, 18.870, 314.0, 17.7200
28.386246680, 18.870, 350.0, 18.7083
28.397113160, 18.870, 349.0, 18.6815
28.407979640, 18.870, 381.0, 19.5192
28.418846120, 18.870, 382.0, 19.5448
28.429712600, 18.870, 368.0, 19.1833
28.440579080, 18.870, 392.0, 19.7990
28.451445560, 18.870, 397.0, 19.9249
28.462312040, 18.870, 398.0, 19.9499
28.473178520, 18.870, 397.0, 19.9249
28.484045000, 18.870, 389.0, 19.7231
28.494911480, 18.870, 369.0, 19.2094
28.505777960, 18.870, 369.0, 19.2094
28.516644440, 18.870, 373.0, 19.3132
28.527510920, 18.870, 350.0, 18.7083
28.538377400, 18.870, 372.0, 19.2873
28.549243880, 18.870, 426.0, 20.6398
28.560110360, 18.870, 365.0, 19.1050
28.570976840, 18.870, 362.0, 19.0263
28.581843320, 18.870, 404.0, 20.0998
28.592709800, 18.870, 371.0, 19.2614
28.603576280, 18.870, 400.0, 20.0000
28.614442760, 18.870, 370.0, 19.2354
28.625309240, 18.870, 385.0, 19.6214
28.636175720, 18.870, 382.0, 19.5448
28.647042200, 18.870, 422.0, 20.5426
28.657908680, 18.870, 356.0, 18.8680
28.668775160, 18.870, 430.0, 20.7364
28.679641640, 18.870, 398.0, 19.9499
28.690508120, 18.870, 419.0, 20.4695
28.701374600, 18.870, 399.0, 19.9750
28.712241080, 18.870, 349.0, 18.6815
28.723107560, 18.870, 352.0, 18.7617
28.733974040, 18.870, 374.0, 19.3391
28.744840520, 18.870, 405.0, 20.1246
28.755707000, 18.870, 416.0, 20.3961
28.766573480, 18.870, 370.0, 19.2354
28.777439960, 18.870, 396.0, 19.8997
28.788306440, 18.870, 356.0, 18.8680
28.799172920, 18.870, 385.0, 19.6214
28.810039400, 18.870, 360.0, 18.9737
28.820905880, 18.870, 353.0, 18.7883
28.831772360, 18.870, 377.0, 19.4165
28.842638840, 18.870, 370.0, 19.2354
28.853505320, 18.870, 364.0, 19.0788
28.864371800, 18.870, 386.0, 19.6469
28.875238280, 18.870, 361.0, 19.0000
28.886104760, 18.870, 353.0, 18.7883
28.896971240, 18.870, 381.0, 19.5192
28.907837720, 18.870, 376.0, 19.3907
28.918704200, 18.870, 357.0, 18.8944
28.929570680, 18.870, 366.0, 19.1311
28.940437160, 18.870, 348.0, 18.6548
28.951303640, 18.870, 348.0, 18.6548
28.962170120, 18.870, 320.0, 17.8885
28.973036600, 18.870, 315.0, 17.7482
28.983903080, 18.870, 339.0, 18.4120
28.994769560, 18.870, 390.0, 19.7484
29.005636040, 18.870, 366.0, 19.1311
29.016502520, 18.870, 333.0, 18.2483
29.027369000, 18.870, 334.0, 18.2757
29.038235480, 18.870, 351.0, 18.7350
29.049101960, 18.870, 326.0, 18.0555
29.059968440, 18.870, 327.0, 18.0831
29.070834920, 18.870, 309.0, 17.5784
29.081701400, 18.870, 312.0, 17.6635
29.092567880, 18.870, 298.0, 17.2627
29.103434360, 18.870, 296.0, 17.2047
29.114300840, 18.870, 309.0, 17.5784
29.125167320, 18.870, 343.0, 18.5203
29.136033800, 18.870, 305.0, 17.4642
29.146900280, 18.870, 303.0, 17.4069
29.157766760, 18.870, 287.0, 16.9411
29.168633240, 18.870, 319.0, 17.8606
29.179499720, 18.870, 294.0, 17.1464
29.190366200, 18.870, 319.0, 17.8606
29.201232680, 18.870, 288.0, 16.9706
29.212099160, 18.870, 299.0, 17.2916
29.222965640, 18.870, 292.0, 17.0880
29.233832120, 18.870, 273.0, 16.5227
29.244698600, 18.870, 325.0, 18.0278
29.255565080, 18.870, 322.0, 17.9444
29.266431560, 18.870, 304.0, 17.4356
29.277298040, 18.870, 301.0, 17.3494
29.288164520, 18.870, 284.0, 16.8523
29.299031000, 18.870, 272.0, 16.4924
29.309897480, 18.870, 268.0, 16.3707
29.320763960, 18.870, 273.0, 16.5227
29.331630440, 18.870, 307.0, 17.5214
29.342496920, 18.870, 303.0, 17.4069
29.353363400, 18.870, 302.0, 17.3781
29.364229880, 18.870, 263.0, 16.2173
29.375096360, 18.870, 338.0, 18.3848
29.385962840, 18.870, 330.0, 18.1659
29.396829320, 18.870, 264.0, 16.2481
29.407695800, 18.870, 317.0, 17.8045
29.418562280, 18.870, 304.0, 17.4356
29.429428760, 18.870, 308.0, 17.5499
29.440295240, 18.870, 326.0, 18.0555
29.451161720, 18.870, 310.0, 17.6068
29.462028200, 18.870, 300.0, 17.3205
29.472894680, 18.870, 298.0, 17.2627
29.483761160, 18.870, 330.0, 18.1659
29.494627640, 18.870, 320.0, 17.8885
29.505494120, 18.870, 308.0, 17.5499
29.516360600, 18.870, 349.0, 18.6815
29.527227080, 18.870, 344.0, 18.5472
29.538093560, 18.870, 323.0, 17.9722
29.548960040, 18.870, 281.0, 16.7631
29.559826520, 18.870, 318.0, 17.8326
29.570693000, 18.870, 325.0, 18.0278
29.581559480, 18.870, 349.0, 18.6815
29.592425960, 18.870, 351.0, 18.7350
29.603292440, 18.870, 351.0, 18.7350
29.614158920, 18.870, 308.0, 17.5499
29.625025400, 18.870, 350.0, 18.7083
29.635891880, 18.870, 356.0, 18.8680
29.646758360, 18.870, 326.0, 18.0555
29.657624840, 18.870, 317.0, 17.8045
29.668491320, 18.870, 336.0, 18.3303
29.679357800, 18.870, 328.0, 18.1108
29.690224280, 18.870, 356.0, 18.8680
29.701090760, 18.870, 307.0, 17.5214
29.711957240, 18.870, 353.0, 18.7883
29.722823720, 18.870, 343.0, 18.5203
29.733690200, 18.870, 378.0, 19.4422
29.744556680, 18.870, 316.0, 17.7764
29.755423160, 18.870, 334.0, 18.2757
29.766289640, 18.870, 332.0, 18.2209
29.777156120, 18.870, 340.0, 18.4391
29.788022600, 18.870, 358.0, 18.9209
29.798889080, 18.870, 351.0, 18.7350
29.809755560, 18.870, 330.0, 18.1659
29.820622040, 18.870, 345.0, 18.5742
29.831488520, 18.870, 361.0, 19.0000
29.842355000, 18.870, 354.0, 18.8149
29.853221480, 18.870, 363.0, 19.0526
29.864087960, 18.870, 374.0, 19.3391
29.874954440, 18.870, 396.0, 19.8997
29.885820920, 18.870, 351.0, 18.7350
29.896687400, 18.870, 363.0, 19.0526
29.907553880, 18.870, 353.0, 18.7883
29.918420360, 18.870, 383.0, 19.5704
29.929286840, 18.870, 386.0, 19.6469
29.940153320, 18.870, 359.0, 18.9473
29.951019800, 18.870, 366.0, 19.1311
29.961886280, 18.870, 373.0, 19.3132
29.972752760, 18.870, 389.0, 19.7231
29.983619240, 18.870, 381.0, 19.5192
29.994485720, 18.870, 385.0, 19.6214
